$m_{ee}$ (GeV/$c^2$)
7
dN/d$m_{ee}$ ($c^2$/GeV)
dN/d$m_{ee}$ ($c^2$/GeV)
dN/d$m_{ee}$ ($c^2$/GeV)
dN/d$m_{ee}$ ($c^2$/GeV)
dN/d$m_{ee}$ ($c^2$/GeV)
dN/d$m_{ee}$ ($c^2$/GeV)
dN/d$m_{ee}$ ($c^2$/GeV)
0.5-1.0 Gev/$c$ x $10^3$
1.0-1.5 Gev/$c$ x $10^2$
1.5-2.0 Gev/$c$ x $10$
2.0-2.5 Gev/$c$
2.5-3.0 Gev/$c$ x $10^{-1}$
3.0-4.0 Gev/$c$ x $10^{-2}$
4.0-5.0 Gev/$c$ x $10^{-3}$
Yes
None
None
0
0	0.0050	3.44773E-01
0.0050	0.0100	3.43810E-01
0.0100	0.0150	1.66877E-01
0.0150	0.0200	9.13067E-02
0.0200	0.0250	6.44794E-02
0.0250	0.0300	4.93150E-02
0.0300	0.0350	4.01671E-02
0.0350	0.0400	3.36916E-02
0.0400	0.0450	2.85007E-02
0.0450	0.0500	2.42249E-02
0.0500	0.0550	2.01205E-02
0.0550	0.0600	1.81136E-02
0.0600	0.0650	1.54772E-02
0.0650	0.0700	1.40599E-02
0.0700	0.0750	1.22327E-02
0.0750	0.0800	1.03017E-02
0.0800	0.0850	9.35222E-03
0.0850	0.0900	7.84556E-03
0.0900	0.0950	6.55729E-03
0.0950	0.1000	4.79947E-03
0.1000	0.1050	4.40163E-03
0.1050	0.1100	3.50409E-03
0.1100	0.1150	2.83561E-03
0.1150	0.1200	2.19378E-03
0.1200	0.1250	1.84848E-03
0.1250	0.1300	1.52961E-03
0.1300	0.1350	1.42117E-03
0.1350	0.1400	1.33635E-03
0.1400	0.1450	1.40162E-03
0.1450	0.1500	1.36292E-03
0.1500	0.1550	1.33178E-03
0.1550	0.1600	1.23844E-03
0.1600	0.1650	1.35291E-03
0.1650	0.1700	1.24862E-03
0.1700	0.1750	1.26248E-03
0.1750	0.1800	1.23547E-03
0.1800	0.1850	1.21573E-03
0.1850	0.1900	1.24966E-03
0.1900	0.1950	1.14309E-03
0.1950	0.2000	1.11923E-03
0.2000	0.2050	1.19670E-03
0.2050	0.2100	1.15004E-03
0.2100	0.2150	1.14963E-03
0.2150	0.2200	1.11690E-03
0.2200	0.2250	1.20643E-03
0.2250	0.2300	1.15190E-03
0.2300	0.2350	1.12946E-03
0.2350	0.2400	1.10555E-03
0.2400	0.2450	1.14528E-03
0.2450	0.2500	1.06908E-03
0.2500	0.2550	1.05293E-03
0.2550	0.2600	1.05687E-03
0.2600	0.2650	1.13949E-03
0.2650	0.2700	1.03937E-03
0.2700	0.2750	1.01891E-03
0.2750	0.2800	1.02166E-03
0.2800	0.2850	9.75376E-04
0.2850	0.2900	1.01745E-03
0.2900	0.2950	1.03900E-03
0.2950	0.3000	1.00259E-03
0.3000	0.3050	9.37042E-04
0.3050	0.3100	9.22292E-04
0.3100	0.3150	9.21422E-04
0.3150	0.3200	9.44506E-04
0.3200	0.3250	9.13043E-04
0.3250	0.3300	9.50885E-04
0.3300	0.3350	8.78533E-04
0.3350	0.3400	8.11939E-04
0.3400	0.3450	8.76018E-04
0.3450	0.3500	8.59530E-04
0.3500	0.3550	8.47076E-04
0.3550	0.3600	7.86190E-04
0.3600	0.3650	7.70920E-04
0.3650	0.3700	8.04407E-04
0.3700	0.3750	7.74602E-04
0.3750	0.3800	7.95367E-04
0.3800	0.3850	7.41966E-04
0.3850	0.3900	7.54291E-04
0.3900	0.3950	7.26252E-04
0.3950	0.4000	6.84406E-04
0.4000	0.4050	6.55936E-04
0.4050	0.4100	6.41576E-04
0.4100	0.4150	5.98907E-04
0.4150	0.4200	6.23348E-04
0.4200	0.4250	6.01275E-04
0.4250	0.4300	6.01333E-04
0.4300	0.4350	5.46317E-04
0.4350	0.4400	5.52030E-04
0.4400	0.4450	5.28580E-04
0.4450	0.4500	5.29689E-04
0.4500	0.4550	5.25642E-04
0.4550	0.4600	4.69447E-04
0.4600	0.4650	4.78131E-04
0.4650	0.4700	4.39018E-04
0.4700	0.4750	4.22989E-04
0.4750	0.4800	4.18841E-04
0.4800	0.4850	4.12095E-04
0.4850	0.4900	3.95261E-04
0.4900	0.4950	3.88833E-04
0.4950	0.5000	3.80300E-04
0.5000	0.5050	3.67463E-04
0.5050	0.5100	3.58280E-04
0.5100	0.5150	3.44490E-04
0.5150	0.5200	3.36143E-04
0.5200	0.5250	3.42896E-04
0.5250	0.5300	3.46024E-04
0.5300	0.5350	3.41506E-04
0.5350	0.5400	3.35194E-04
0.5400	0.5450	3.45454E-04
0.5450	0.5500	3.32990E-04
0.5500	0.5550	3.17616E-04
0.5550	0.5600	3.37400E-04
0.5600	0.5650	3.38955E-04
0.5650	0.5700	3.31017E-04
0.5700	0.5750	3.38366E-04
0.5750	0.5800	3.38693E-04
0.5800	0.5850	3.33239E-04
0.5850	0.5900	3.31412E-04
0.5900	0.5950	3.35712E-04
0.5950	0.6000	3.35518E-04
0.6000	0.6050	3.35447E-04
0.6050	0.6100	3.38200E-04
0.6100	0.6150	3.24870E-04
0.6150	0.6200	3.34041E-04
0.6200	0.6250	3.14973E-04
0.6250	0.6300	3.01381E-04
0.6300	0.6350	3.02984E-04
0.6350	0.6400	2.86194E-04
0.6400	0.6450	2.72695E-04
0.6450	0.6500	2.67036E-04
0.6500	0.6550	2.60447E-04
0.6550	0.6600	2.50484E-04
0.6600	0.6650	2.73793E-04
0.6650	0.6700	2.67052E-04
0.6700	0.6750	2.79748E-04
0.6750	0.6800	2.87625E-04
0.6800	0.6850	2.95984E-04
0.6850	0.6900	3.02410E-04
0.6900	0.6950	3.14113E-04
0.6950	0.7000	3.15030E-04
0.7000	0.7050	3.23850E-04
0.7050	0.7100	3.37000E-04
0.7100	0.7150	3.43310E-04
0.7150	0.7200	3.73729E-04
0.7200	0.7250	3.66785E-04
0.7250	0.7300	3.78485E-04
0.7300	0.7350	3.94536E-04
0.7350	0.7400	4.06136E-04
0.7400	0.7450	4.18385E-04
0.7450	0.7500	4.26408E-04
0.7500	0.7550	4.67339E-04
0.7550	0.7600	5.11854E-04
0.7600	0.7650	5.98911E-04
0.7650	0.7700	8.62373E-04
0.7700	0.7750	1.34223E-03
0.7750	0.7800	2.05723E-03
0.7800	0.7850	2.36818E-03
0.7850	0.7900	2.00305E-03
0.7900	0.7950	1.28990E-03
0.7950	0.8000	7.64258E-04
0.8000	0.8050	4.87662E-04
0.8050	0.8100	3.62689E-04
0.8100	0.8150	2.99538E-04
0.8150	0.8200	2.54647E-04
0.8200	0.8250	2.27216E-04
0.8250	0.8300	2.19185E-04
0.8300	0.8350	1.90862E-04
0.8350	0.8400	1.77227E-04
0.8400	0.8450	1.72042E-04
0.8450	0.8500	1.61924E-04
0.8500	0.8550	1.48939E-04
0.8550	0.8600	1.56428E-04
0.8600	0.8650	1.34524E-04
0.8650	0.8700	1.29266E-04
0.8700	0.8750	1.22270E-04
0.8750	0.8800	1.21599E-04
0.8800	0.8850	1.18777E-04
0.8850	0.8900	1.08117E-04
0.8900	0.8950	1.12816E-04
0.8950	0.9000	9.98867E-05
0.9000	0.9050	1.01600E-04
0.9050	0.9100	9.60630E-05
0.9100	0.9150	9.64145E-05
0.9150	0.9200	9.13680E-05
0.9200	0.9250	9.29799E-05
0.9250	0.9300	9.11142E-05
0.9300	0.9350	8.91280E-05
0.9350	0.9400	8.16843E-05
0.9400	0.9450	8.03472E-05
0.9450	0.9500	7.85480E-05
0.9500	0.9550	8.07582E-05
0.9550	0.9600	7.20884E-05
0.9600	0.9650	6.90983E-05
0.9650	0.9700	7.95144E-05
0.9700	0.9750	8.17191E-05
0.9750	0.9800	7.73459E-05
0.9800	0.9850	8.07985E-05
0.9850	0.9900	7.94988E-05
0.9900	0.9950	9.69814E-05
0.9950	1.0000	1.27234E-04
1.0000	1.0050	2.13732E-04
1.0050	1.0100	4.09342E-04
1.0100	1.0150	6.98456E-04
1.0150	1.0200	9.42454E-04
1.0200	1.0250	9.33990E-04
1.0250	1.0300	6.62656E-04
1.0300	1.0350	3.77360E-04
1.0350	1.0400	1.89829E-04
1.0400	1.0450	1.07076E-04
1.0450	1.0500	7.95542E-05
1.0500	1.0550	6.78194E-05
1.0550	1.0600	5.85783E-05
1.0600	1.0650	5.82887E-05
1.0650	1.0700	5.89240E-05
1.0700	1.0750	5.77507E-05
1.0750	1.0800	5.24805E-05
1.0800	1.0850	5.24693E-05
1.0850	1.0900	5.03115E-05
1.0900	1.0950	4.97697E-05
1.0950	1.1000	4.36024E-05
1.1000	1.1050	4.16121E-05
1.1050	1.1100	4.62276E-05
1.1100	1.1150	5.08242E-05
1.1150	1.1200	4.34181E-05
1.1200	1.1250	4.05074E-05
1.1250	1.1300	4.67781E-05
1.1300	1.1350	4.12398E-05
1.1350	1.1400	4.03428E-05
1.1400	1.1450	4.18593E-05
1.1450	1.1500	4.88316E-05
1.1500	1.1550	4.18701E-05
1.1550	1.1600	4.54567E-05
1.1600	1.1650	3.93165E-05
1.1650	1.1700	3.35154E-05
1.1700	1.1750	3.56350E-05
1.1750	1.1800	3.65775E-05
1.1800	1.1850	3.61784E-05
1.1850	1.1900	3.33113E-05
1.1900	1.1950	3.68819E-05
1.1950	1.2000	3.89836E-05
1.2000	1.2050	3.49817E-05
1.2050	1.2100	3.14813E-05
1.2100	1.2150	3.42396E-05
1.2150	1.2200	3.73228E-05
1.2200	1.2250	2.90984E-05
1.2250	1.2300	3.06769E-05
1.2300	1.2350	3.46135E-05
1.2350	1.2400	3.70351E-05
1.2400	1.2450	3.03127E-05
1.2450	1.2500	3.25026E-05
1.2500	1.2550	2.93630E-05
1.2550	1.2600	2.65001E-05
1.2600	1.2650	2.83343E-05
1.2650	1.2700	3.18628E-05
1.2700	1.2750	2.89522E-05
1.2750	1.2800	2.77508E-05
1.2800	1.2850	3.07688E-05
1.2850	1.2900	2.77998E-05
1.2900	1.2950	2.63429E-05
1.2950	1.3000	2.92604E-05
1.3000	1.3050	3.20854E-05
1.3050	1.3100	2.88657E-05
1.3100	1.3150	2.49318E-05
1.3150	1.3200	1.91508E-05
1.3200	1.3250	2.46884E-05
1.3250	1.3300	2.70109E-05
1.3300	1.3350	2.68664E-05
1.3350	1.3400	2.54160E-05
1.3400	1.3450	2.29879E-05
1.3450	1.3500	1.99058E-05
1.3500	1.3550	2.48402E-05
1.3550	1.3600	2.67195E-05
1.3600	1.3650	2.54309E-05
1.3650	1.3700	2.03685E-05
1.3700	1.3750	2.44468E-05
1.3750	1.3800	2.55660E-05
1.3800	1.3850	2.15512E-05
1.3850	1.3900	2.24142E-05
1.3900	1.3950	2.83000E-05
1.3950	1.4000	2.47475E-05
1.4000	1.4050	2.30230E-05
1.4050	1.4100	2.05883E-05
1.4100	1.4150	2.66321E-05
1.4150	1.4200	2.13077E-05
1.4200	1.4250	1.89644E-05
1.4250	1.4300	2.37658E-05
1.4300	1.4350	1.77670E-05
1.4350	1.4400	2.07193E-05
1.4400	1.4450	2.08921E-05
1.4450	1.4500	2.18961E-05
1.4500	1.4550	2.06551E-05
1.4550	1.4600	2.02888E-05
1.4600	1.4650	1.60332E-05
1.4650	1.4700	2.23916E-05
1.4700	1.4750	2.09275E-05
1.4750	1.4800	1.83144E-05
1.4800	1.4850	2.29565E-05
1.4850	1.4900	1.68037E-05
1.4900	1.4950	1.87142E-05
1.4950	1.5000	1.94412E-05
1.5000	1.5050	1.96388E-05
1.5050	1.5100	1.44349E-05
1.5100	1.5150	2.06558E-05
1.5150	1.5200	1.87716E-05
1.5200	1.5250	1.78465E-05
1.5250	1.5300	1.70182E-05
1.5300	1.5350	1.60972E-05
1.5350	1.5400	1.49360E-05
1.5400	1.5450	1.70394E-05
1.5450	1.5500	1.37637E-05
1.5500	1.5550	1.59154E-05
1.5550	1.5600	1.80117E-05
1.5600	1.5650	1.34213E-05
1.5650	1.5700	1.60064E-05
1.5700	1.5750	1.18400E-05
1.5750	1.5800	1.28967E-05
1.5800	1.5850	1.53216E-05
1.5850	1.5900	1.27031E-05
1.5900	1.5950	1.50510E-05
1.5950	1.6000	1.35606E-05
1.6000	1.6050	1.44963E-05
1.6050	1.6100	1.34578E-05
1.6100	1.6150	1.34850E-05
1.6150	1.6200	1.30797E-05
1.6200	1.6250	1.57390E-05
1.6250	1.6300	1.06915E-05
1.6300	1.6350	1.27902E-05
1.6350	1.6400	1.43180E-05
1.6400	1.6450	1.58114E-05
1.6450	1.6500	1.34864E-05
1.6500	1.6550	1.47400E-05
1.6550	1.6600	1.47940E-05
1.6600	1.6650	1.28530E-05
1.6650	1.6700	1.34380E-05
1.6700	1.6750	1.21173E-05
1.6750	1.6800	1.34081E-05
1.6800	1.6850	1.14224E-05
1.6850	1.6900	8.79920E-06
1.6900	1.6950	9.13040E-06
1.6950	1.7000	9.00249E-06
1.7000	1.7050	1.17140E-05
1.7050	1.7100	1.12447E-05
1.7100	1.7150	1.11491E-05
1.7150	1.7200	1.36992E-05
1.7200	1.7250	1.13295E-05
1.7250	1.7300	1.19554E-05
1.7300	1.7350	1.26731E-05
1.7350	1.7400	1.01286E-05
1.7400	1.7450	8.37950E-06
1.7450	1.7500	9.82954E-06
1.7500	1.7550	8.25661E-06
1.7550	1.7600	8.23415E-06
1.7600	1.7650	1.10897E-05
1.7650	1.7700	1.15218E-05
1.7700	1.7750	7.35248E-06
1.7750	1.7800	1.03652E-05
1.7800	1.7850	7.12652E-06
1.7850	1.7900	8.11451E-06
1.7900	1.7950	9.08581E-06
1.7950	1.8000	9.04203E-06
1.8000	1.8050	5.83610E-06
1.8050	1.8100	8.75415E-06
1.8100	1.8150	5.82488E-06
1.8150	1.8200	8.33938E-06
1.8200	1.8250	7.84303E-06
1.8250	1.8300	7.53359E-06
1.8300	1.8350	7.97328E-06
1.8350	1.8400	8.86355E-06
1.8400	1.8450	7.53498E-06
1.8450	1.8500	5.94923E-06
1.8500	1.8550	8.37551E-06
1.8550	1.8600	6.73618E-06
1.8600	1.8650	9.85934E-06
1.8650	1.8700	9.22157E-06
1.8700	1.8750	7.33170E-06
1.8750	1.8800	8.54087E-06
1.8800	1.8850	9.79809E-06
1.8850	1.8900	7.18057E-06
1.8900	1.8950	5.83559E-06
1.8950	1.9000	6.12313E-06
1.9000	1.9050	5.70340E-06
1.9050	1.9100	5.79018E-06
1.9100	1.9150	5.09047E-06
1.9150	1.9200	9.52067E-06
1.9200	1.9250	7.28340E-06
1.9250	1.9300	6.24969E-06
1.9300	1.9350	7.00414E-06
1.9350	1.9400	6.33253E-06
1.9400	1.9450	7.66127E-06
1.9450	1.9500	5.26702E-06
1.9500	1.9550	4.54533E-06
1.9550	1.9600	6.90195E-06
1.9600	1.9650	3.43093E-06
1.9650	1.9700	4.31288E-06
1.9700	1.9750	3.64895E-06
1.9750	1.9800	6.81712E-06
1.9800	1.9850	2.39575E-06
1.9850	1.9900	7.03756E-06
1.9900	1.9950	4.13976E-06
1.9950	2.0000	4.55402E-06
2.0000	2.0050	6.16175E-06
2.0050	2.0100	6.53176E-06
2.0100	2.0150	4.29673E-06
2.0150	2.0200	6.59762E-06
2.0200	2.0250	5.92209E-06
2.0250	2.0300	3.69948E-06
2.0300	2.0350	6.04162E-06
2.0350	2.0400	3.87325E-06
2.0400	2.0450	4.52124E-06
2.0450	2.0500	5.36695E-06
2.0500	2.0550	4.84841E-06
2.0550	2.0600	4.78675E-06
2.0600	2.0650	3.59452E-06
2.0650	2.0700	4.25095E-06
2.0700	2.0750	4.30590E-06
2.0750	2.0800	4.80112E-06
2.0800	2.0850	5.15246E-06
2.0850	2.0900	4.73037E-06
2.0900	2.0950	3.32596E-06
2.0950	2.1000	5.55110E-06
2.1000	2.1050	4.88180E-06
2.1050	2.1100	3.58032E-06
2.1100	2.1150	4.77400E-06
2.1150	2.1200	5.81041E-06
2.1200	2.1250	3.31274E-06
2.1250	2.1300	1.40987E-06
2.1300	2.1350	3.40882E-06
2.1350	2.1400	3.67488E-06
2.1400	2.1450	3.87114E-06
2.1450	2.1500	3.09586E-06
2.1500	2.1550	2.60694E-06
2.1550	2.1600	4.26401E-06
2.1600	2.1650	3.28322E-06
2.1650	2.1700	4.51803E-06
2.1700	2.1750	2.76876E-06
2.1750	2.1800	3.51511E-06
2.1800	2.1850	3.97872E-06
2.1850	2.1900	4.51043E-06
2.1900	2.1950	4.03421E-06
2.1950	2.2000	9.37273E-07
2.2000	2.2050	2.11322E-06
2.2050	2.2100	1.83903E-06
2.2100	2.2150	3.23907E-06
2.2150	2.2200	4.01634E-06
2.2200	2.2250	2.06196E-06
2.2250	2.2300	4.45360E-06
2.2300	2.2350	3.79494E-06
2.2350	2.2400	2.78512E-06
2.2400	2.2450	2.80364E-06
2.2450	2.2500	3.05572E-06
2.2500	2.2550	3.68951E-06
2.2550	2.2600	2.10370E-06
2.2600	2.2650	2.54507E-06
2.2650	2.2700	3.72404E-06
2.2700	2.2750	1.36716E-06
2.2750	2.2800	4.49216E-06
2.2800	2.2850	2.28843E-06
2.2850	2.2900	2.76891E-06
2.2900	2.2950	1.85042E-06
2.2950	2.3000	3.75045E-06
2.3000	2.3050	2.37137E-06
2.3050	2.3100	2.32814E-06
2.3100	2.3150	1.35928E-06
2.3150	2.3200	1.23655E-06
2.3200	2.3250	3.00372E-06
2.3250	2.3300	1.81807E-06
2.3300	2.3350	2.54971E-06
2.3350	2.3400	3.08323E-06
2.3400	2.3450	2.30992E-06
2.3450	2.3500	5.65321E-06
2.3500	2.3550	1.59688E-06
2.3550	2.3600	2.44118E-06
2.3600	2.3650	1.76896E-06
2.3650	2.3700	1.56031E-06
2.3700	2.3750	3.94171E-06
2.3750	2.3800	2.49227E-06
2.3800	2.3850	3.06773E-06
2.3850	2.3900	2.28971E-06
2.3900	2.3950	3.49374E-06
2.3950	2.4000	2.52689E-06
2.4000	2.4050	4.36715E-06
2.4050	2.4100	1.54122E-06
2.4100	2.4150	1.79127E-06
2.4150	2.4200	1.52448E-06
2.4200	2.4250	3.46433E-06
2.4250	2.4300	1.51217E-06
2.4300	2.4350	1.30669E-06
2.4350	2.4400	1.57706E-06
2.4400	2.4450	2.51195E-06
2.4450	2.4500	2.04790E-06
2.4500	2.4550	3.77453E-06
2.4550	2.4600	3.04450E-06
2.4600	2.4650	2.00825E-06
2.4650	2.4700	1.97653E-06
2.4700	2.4750	2.07739E-06
2.4750	2.4800	8.20976E-07
2.4800	2.4850	1.57433E-06
2.4850	2.4900	1.13151E-06
2.4900	2.4950	1.79405E-06
2.4950	2.5000	9.00421E-07
2.5000	2.5050	1.31329E-06
2.5050	2.5100	2.06936E-06
2.5100	2.5150	1.29276E-06
2.5150	2.5200	8.15387E-07
2.5200	2.5250	1.74201E-06
2.5250	2.5300	1.75285E-06
2.5300	2.5350	5.69969E-07
2.5350	2.5400	8.61120E-07
2.5400	2.5450	1.07219E-06
2.5450	2.5500	1.10201E-06
2.5500	2.5550	1.05038E-06
2.5550	2.5600	1.52296E-06
2.5600	2.5650	1.78413E-06
2.5650	2.5700	1.54306E-06
2.5700	2.5750	6.03471E-07
2.5750	2.5800	1.06769E-06
2.5800	2.5850	1.10023E-06
2.5850	2.5900	2.75565E-06
2.5900	2.5950	1.52057E-06
2.5950	2.6000	5.72215E-07
2.6000	2.6050	1.05552E-06
2.6050	2.6100	1.68717E-06
2.6100	2.6150	1.27319E-06
2.6150	2.6200	1.29848E-06
2.6200	2.6250	2.27566E-06
2.6250	2.6300	8.67446E-07
2.6300	2.6350	1.09848E-06
2.6350	2.6400	1.73373E-06
2.6400	2.6450	1.58665E-06
2.6450	2.6500	1.26758E-06
2.6500	2.6550	1.54318E-06
2.6550	2.6600	1.31889E-06
2.6600	2.6650	2.50409E-06
2.6650	2.6700	2.70812E-06
2.6700	2.6750	1.74036E-06
2.6750	2.6800	2.23093E-06
2.6800	2.6850	7.45024E-07
2.6850	2.6900	1.75298E-06
2.6900	2.6950	1.12136E-06
2.6950	2.7000	8.05550E-07
2.7000	2.7050	1.29207E-06
2.7050	2.7100	5.75467E-07
2.7100	2.7150	1.72847E-06
2.7150	2.7200	7.96455E-07
2.7200	2.7250	1.28097E-06
2.7250	2.7300	7.83445E-07
2.7300	2.7350	1.77186E-06
2.7350	2.7400	6.28986E-07
2.7400	2.7450	1.04913E-06
2.7450	2.7500	8.12219E-07
2.7500	2.7550	1.02169E-06
2.7550	2.7600	1.04358E-06
2.7600	2.7650	1.27443E-06
2.7650	2.7700	8.71453E-07
2.7700	2.7750	1.05320E-06
2.7750	2.7800	1.03495E-06
2.7800	2.7850	8.09884E-07
2.7850	2.7900	1.26132E-06
2.7900	2.7950	8.00029E-07
2.7950	2.8000	1.05257E-06
2.8000	2.8050	5.04766E-07
2.8050	2.8100	7.19742E-08
2.8100	2.8150	8.11813E-07
2.8150	2.8200	1.71685E-06
2.8200	2.8250	1.01933E-06
2.8250	2.8300	3.17123E-06
2.8300	2.8350	8.34496E-07
2.8350	2.8400	8.09984E-07
2.8400	2.8450	7.53638E-07
2.8450	2.8500	1.03009E-06
2.8500	2.8550	1.29384E-06
2.8550	2.8600	1.51939E-06
2.8600	2.8650	7.56862E-07
2.8650	2.8700	1.47966E-06
2.8700	2.8750	1.05257E-06
2.8750	2.8800	2.90201E-07
2.8800	2.8850	5.24425E-07
2.8850	2.8900	7.79656E-07
2.8900	2.8950	4.88073E-07
2.8950	2.9000	5.82597E-07
2.9000	2.9050	2.80805E-07
2.9050	2.9100	9.96040E-07
2.9100	2.9150	2.85515E-07
2.9150	2.9200	1.02220E-06
2.9200	2.9250	5.35175E-07
2.9250	2.9300	3.17695E-07
2.9300	2.9350	5.72558E-07
2.9350	2.9400	3.11290E-07
2.9400	2.9450	3.26839E-07
2.9450	2.9500	5.77401E-07
2.9500	2.9550	3.62803E-07
2.9550	2.9600	1.16070E-06
2.9600	2.9650	1.27557E-06
2.9650	2.9700	7.82238E-07
2.9700	2.9750	8.58088E-07
2.9750	2.9800	1.14132E-06
2.9800	2.9850	2.00200E-06
2.9850	2.9900	1.72209E-06
2.9900	2.9950	3.04294E-06
2.9950	3.0000	3.09526E-06
3.0000	3.0050	4.81003E-06
3.0050	3.0100	6.62336E-06
3.0100	3.0150	7.92576E-06
3.0150	3.0200	1.04008E-05
3.0200	3.0250	1.25014E-05
3.0250	3.0300	1.58989E-05
3.0300	3.0350	1.99586E-05
3.0350	3.0400	2.43781E-05
3.0400	3.0450	2.85312E-05
3.0450	3.0500	3.34901E-05
3.0500	3.0550	3.94325E-05
3.0550	3.0600	4.45759E-05
3.0600	3.0650	4.95018E-05
3.0650	3.0700	5.46936E-05
3.0700	3.0750	5.89625E-05
3.0750	3.0800	6.35277E-05
3.0800	3.0850	6.70430E-05
3.0850	3.0900	6.88668E-05
3.0900	3.0950	7.07326E-05
3.0950	3.1000	7.04063E-05
3.1000	3.1050	6.97783E-05
3.1050	3.1100	6.76475E-05
3.1100	3.1150	6.40374E-05
3.1150	3.1200	6.04712E-05
3.1200	3.1250	5.58720E-05
3.1250	3.1300	5.04560E-05
3.1300	3.1350	4.51908E-05
3.1350	3.1400	3.92313E-05
3.1400	3.1450	3.44190E-05
3.1450	3.1500	2.94298E-05
3.1500	3.1550	2.49086E-05
3.1550	3.1600	1.99335E-05
3.1600	3.1650	1.60857E-05
3.1650	3.1700	1.26027E-05
3.1700	3.1750	1.05362E-05
3.1750	3.1800	7.61261E-06
3.1800	3.1850	6.50901E-06
3.1850	3.1900	5.01865E-06
3.1900	3.1950	3.38203E-06
3.1950	3.2000	2.52669E-06
3.2000	3.2050	1.91194E-06
3.2050	3.2100	1.75051E-06
3.2100	3.2150	1.54604E-06
3.2150	3.2200	5.72227E-07
3.2200	3.2250	7.96839E-07
3.2250	3.2300	7.39505E-07
3.2300	3.2350	7.13102E-07
3.2350	3.2400	1.56213E-07
3.2400	3.2450	8.47048E-07
3.2450	3.2500	5.05905E-08
3.2500	3.2550	3.26716E-07
3.2550	3.2600	4.11225E-08
3.2600	3.2650	5.70057E-08
3.2650	3.2700	2.86639E-07
3.2700	3.2750	5.64730E-07
3.2750	3.2800	2.24236E-08
3.2800	3.2850	3.84640E-08
3.2850	3.2900	8.19940E-08
3.2900	3.2950	7.47623E-07
3.2950	3.3000	2.30477E-08
3.3000	3.3050	2.59510E-07
3.3050	3.3100	3.04702E-07
3.3100	3.3150	1.67138E-08
3.3150	3.3200	2.56984E-07
3.3200	3.3250	2.67914E-07
3.3250	3.3300	2.44482E-07
3.3300	3.3350	2.72351E-07
3.3350	3.3400	2.63259E-07
3.3400	3.3450	7.52234E-07
3.3450	3.3500	7.58085E-07
3.3500	3.3550	2.50928E-07
3.3550	3.3600	5.03627E-07
3.3600	3.3650	4.98176E-07
3.3650	3.3700	1.08984E-08
3.3700	3.3750	2.72609E-07
3.3750	3.3800	4.33596E-08
3.3800	3.3850	4.42299E-08
3.3850	3.3900	3.07003E-07
3.3900	3.3950	5.42383E-07
3.3950	3.4000	5.04291E-08
3.4000	3.4050	2.21746E-08
3.4050	3.4100	5.26644E-07
3.4100	3.4150	7.19840E-08
3.4150	3.4200	5.02898E-08
3.4200	3.4250	2.56149E-07
3.4250	3.4300	1.08923E-08
3.4300	3.4350	5.52241E-07
3.4350	3.4400	1.78155E-08
3.4400	3.4450	1.15657E-08
3.4450	3.4500	5.00312E-08
3.4500	3.4550	2.87742E-08
3.4550	3.4600	2.51215E-07
3.4600	3.4650	2.17439E-08
3.4650	3.4700	1.40848E-08
3.4700	3.4750	3.34047E-08
3.4750	3.4800	2.65103E-07
3.4800	3.4850	9.99699E-08
3.4850	3.4900	5.07304E-07
3.4900	3.4950	3.94858E-09
3.4950	3.5000	1.57943E-08
3.5000	3.5050	3.27791E-08
3.5050	3.5100	2.74791E-08
3.5100	3.5150	4.89014E-07
3.5150	3.5200	5.59029E-08
3.5200	3.5250	3.65063E-08
3.5250	3.5300	2.66292E-07
3.5300	3.5350	2.47770E-08
3.5350	3.5400	2.88295E-07
3.5400	3.5450	3.63179E-08
3.5450	3.5500	7.54790E-08
3.5500	3.5550	5.34580E-07
3.5550	3.5600	3.12945E-07
3.5600	3.5650	5.53061E-07
3.5650	3.5700	9.80223E-08
3.5700	3.5750	8.69656E-08
3.5750	3.5800	1.28419E-07
3.5800	3.5850	3.71450E-07
3.5850	3.5900	1.78053E-07
3.5900	3.5950	7.45861E-07
3.5950	3.6000	4.77498E-07
3.6000	3.6050	4.94570E-07
3.6050	3.6100	5.24176E-07
3.6100	3.6150	5.94309E-07
3.6150	3.6200	3.52376E-07
3.6200	3.6250	4.25843E-07
3.6250	3.6300	4.89100E-07
3.6300	3.6350	7.20107E-07
3.6350	3.6400	5.25205E-07
3.6400	3.6450	5.65142E-07
3.6450	3.6500	6.13174E-07
3.6500	3.6550	6.89565E-07
3.6550	3.6600	9.02868E-07
3.6600	3.6650	6.97206E-07
3.6650	3.6700	7.20794E-07
3.6700	3.6750	1.19907E-06
3.6750	3.6800	1.00521E-06
3.6800	3.6850	1.02081E-06
3.6850	3.6900	1.00629E-06
3.6900	3.6950	1.24409E-06
3.6950	3.7000	7.38114E-07
3.7000	3.7050	1.21142E-06
3.7050	3.7100	7.27027E-07
3.7100	3.7150	6.53016E-07
3.7150	3.7200	6.44986E-07
3.7200	3.7250	1.07587E-06
3.7250	3.7300	5.63897E-07
3.7300	3.7350	5.24382E-07
3.7350	3.7400	4.49827E-07
3.7400	3.7450	4.01917E-07
3.7450	3.7500	3.96666E-07
3.7500	3.7550	8.37678E-07
3.7550	3.7600	3.05863E-07
3.7600	3.7650	5.00239E-07
3.7650	3.7700	7.08906E-07
3.7700	3.7750	2.09865E-07
3.7750	3.7800	3.95222E-07
3.7800	3.7850	1.39957E-07
3.7850	3.7900	3.75505E-07
3.7900	3.7950	1.13491E-07
3.7950	3.8000	8.83064E-08
3.8000	3.8050	8.46510E-08
3.8050	3.8100	2.92503E-07
3.8100	3.8150	4.90216E-08
3.8150	3.8200	4.68651E-08
3.8200	3.8250	6.72932E-08
3.8250	3.8300	2.76806E-07
3.8300	3.8350	3.07856E-07
3.8350	3.8400	4.95815E-07
3.8400	3.8450	5.38597E-07
3.8450	3.8500	2.60835E-07
3.8500	3.8550	2.60846E-07
3.8550	3.8600	1.52766E-08
3.8600	3.8650	2.89705E-09
3.8650	3.8700	2.44055E-07
3.8700	3.8750	9.63110E-09
3.8750	3.8800	4.25410E-08
3.8800	3.8850	1.26933E-08
3.8850	3.8900	4.84213E-07
3.8900	3.8950	3.59704E-10
3.8950	3.9000	2.53896E-07
3.9000	3.9050	4.97796E-07
3.9050	3.9100	8.10858E-09
3.9100	3.9150	3.34756E-08
3.9150	3.9200	4.51221E-08
3.9200	3.9250	2.60586E-08
3.9250	3.9300	2.76538E-07
3.9300	3.9350	2.41976E-07
3.9350	3.9400	2.41986E-07
3.9400	3.9450	2.49428E-07
3.9450	3.9500	3.78116E-08
3.9500	3.9550	4.01713E-08
3.9550	3.9600	2.41983E-07
3.9600	3.9650	8.32289E-11
3.9650	3.9700	2.65665E-07
3.9700	3.9750	1.24669E-08
3.9750	3.9800	2.50147E-07
3.9800	3.9850	1.55520E-08
3.9850	3.9900	4.83922E-07
3.9900	3.9950	1.36704E-08
3.9950	4.0000	3.76413E-08
***
0	0.0050	2.83122E-02
0.0050	0.0100	2.87940E-02
0.0100	0.0150	1.48316E-02
0.0150	0.0200	8.38878E-03
0.0200	0.0250	5.62058E-03
0.0250	0.0300	4.35494E-03
0.0300	0.0350	3.47184E-03
0.0350	0.0400	2.90036E-03
0.0400	0.0450	2.43198E-03
0.0450	0.0500	2.04889E-03
0.0500	0.0550	1.80134E-03
0.0550	0.0600	1.58128E-03
0.0600	0.0650	1.33768E-03
0.0650	0.0700	1.18389E-03
0.0700	0.0750	1.02572E-03
0.0750	0.0800	8.64955E-04
0.0800	0.0850	7.53545E-04
0.0850	0.0900	6.23759E-04
0.0900	0.0950	5.33667E-04
0.0950	0.1000	4.47711E-04
0.1000	0.1050	3.61677E-04
0.1050	0.1100	3.02193E-04
0.1100	0.1150	2.45015E-04
0.1150	0.1200	1.97006E-04
0.1200	0.1250	1.60522E-04
0.1250	0.1300	1.36793E-04
0.1300	0.1350	1.20581E-04
0.1350	0.1400	1.20122E-04
0.1400	0.1450	1.14193E-04
0.1450	0.1500	1.10501E-04
0.1500	0.1550	1.08508E-04
0.1550	0.1600	1.04534E-04
0.1600	0.1650	9.95818E-05
0.1650	0.1700	9.56765E-05
0.1700	0.1750	8.94346E-05
0.1750	0.1800	8.77446E-05
0.1800	0.1850	8.45729E-05
0.1850	0.1900	8.08911E-05
0.1900	0.1950	7.96450E-05
0.1950	0.2000	7.40292E-05
0.2000	0.2050	7.53485E-05
0.2050	0.2100	7.34985E-05
0.2100	0.2150	6.90556E-05
0.2150	0.2200	6.67982E-05
0.2200	0.2250	6.29445E-05
0.2250	0.2300	6.34904E-05
0.2300	0.2350	5.97018E-05
0.2350	0.2400	6.05768E-05
0.2400	0.2450	5.81762E-05
0.2450	0.2500	5.74601E-05
0.2500	0.2550	5.55149E-05
0.2550	0.2600	5.27514E-05
0.2600	0.2650	4.90898E-05
0.2650	0.2700	5.01583E-05
0.2700	0.2750	4.75087E-05
0.2750	0.2800	4.80571E-05
0.2800	0.2850	4.54475E-05
0.2850	0.2900	4.47310E-05
0.2900	0.2950	4.47894E-05
0.2950	0.3000	4.09841E-05
0.3000	0.3050	4.06998E-05
0.3050	0.3100	4.17727E-05
0.3100	0.3150	3.99041E-05
0.3150	0.3200	3.88939E-05
0.3200	0.3250	3.56710E-05
0.3250	0.3300	3.49512E-05
0.3300	0.3350	3.81126E-05
0.3350	0.3400	3.53775E-05
0.3400	0.3450	3.44664E-05
0.3450	0.3500	3.31647E-05
0.3500	0.3550	3.38451E-05
0.3550	0.3600	2.92665E-05
0.3600	0.3650	2.86074E-05
0.3650	0.3700	2.96908E-05
0.3700	0.3750	2.80407E-05
0.3750	0.3800	2.79332E-05
0.3800	0.3850	2.69035E-05
0.3850	0.3900	2.58403E-05
0.3900	0.3950	2.40572E-05
0.3950	0.4000	2.42484E-05
0.4000	0.4050	2.41030E-05
0.4050	0.4100	2.22107E-05
0.4100	0.4150	2.26249E-05
0.4150	0.4200	2.11116E-05
0.4200	0.4250	2.00176E-05
0.4250	0.4300	1.99788E-05
0.4300	0.4350	1.82868E-05
0.4350	0.4400	1.90782E-05
0.4400	0.4450	1.77930E-05
0.4450	0.4500	1.69954E-05
0.4500	0.4550	1.61134E-05
0.4550	0.4600	1.62462E-05
0.4600	0.4650	1.49258E-05
0.4650	0.4700	1.47424E-05
0.4700	0.4750	1.38234E-05
0.4750	0.4800	1.41032E-05
0.4800	0.4850	1.34561E-05
0.4850	0.4900	1.28685E-05
0.4900	0.4950	1.23710E-05
0.4950	0.5000	1.17617E-05
0.5000	0.5050	1.16034E-05
0.5050	0.5100	1.15605E-05
0.5100	0.5150	1.17057E-05
0.5150	0.5200	1.10878E-05
0.5200	0.5250	1.09954E-05
0.5250	0.5300	1.14526E-05
0.5300	0.5350	1.15002E-05
0.5350	0.5400	1.09008E-05
0.5400	0.5450	1.14536E-05
0.5450	0.5500	1.15044E-05
0.5500	0.5550	1.14604E-05
0.5550	0.5600	1.13890E-05
0.5600	0.5650	1.13047E-05
0.5650	0.5700	1.10600E-05
0.5700	0.5750	1.14463E-05
0.5750	0.5800	1.19775E-05
0.5800	0.5850	1.14131E-05
0.5850	0.5900	1.17107E-05
0.5900	0.5950	1.19370E-05
0.5950	0.6000	1.17308E-05
0.6000	0.6050	1.19654E-05
0.6050	0.6100	1.16083E-05
0.6100	0.6150	1.20702E-05
0.6150	0.6200	1.14553E-05
0.6200	0.6250	1.14411E-05
0.6250	0.6300	1.15079E-05
0.6300	0.6350	1.07168E-05
0.6350	0.6400	1.10515E-05
0.6400	0.6450	1.02443E-05
0.6450	0.6500	1.02595E-05
0.6500	0.6550	1.04588E-05
0.6550	0.6600	1.00659E-05
0.6600	0.6650	1.09743E-05
0.6650	0.6700	1.13034E-05
0.6700	0.6750	1.09341E-05
0.6750	0.6800	1.16334E-05
0.6800	0.6850	1.19039E-05
0.6850	0.6900	1.24282E-05
0.6900	0.6950	1.21318E-05
0.6950	0.7000	1.33825E-05
0.7000	0.7050	1.38828E-05
0.7050	0.7100	1.41950E-05
0.7100	0.7150	1.52425E-05
0.7150	0.7200	1.59595E-05
0.7200	0.7250	1.53443E-05
0.7250	0.7300	1.65924E-05
0.7300	0.7350	1.72007E-05
0.7350	0.7400	1.80099E-05
0.7400	0.7450	1.85393E-05
0.7450	0.7500	2.00719E-05
0.7500	0.7550	2.12444E-05
0.7550	0.7600	2.44413E-05
0.7600	0.7650	3.31054E-05
0.7650	0.7700	4.66058E-05
0.7700	0.7750	6.86690E-05
0.7750	0.7800	9.38079E-05
0.7800	0.7850	1.01514E-04
0.7850	0.7900	8.88132E-05
0.7900	0.7950	6.13180E-05
0.7950	0.8000	3.93005E-05
0.8000	0.8050	2.47707E-05
0.8050	0.8100	1.71080E-05
0.8100	0.8150	1.32956E-05
0.8150	0.8200	1.15103E-05
0.8200	0.8250	9.70190E-06
0.8250	0.8300	9.42330E-06
0.8300	0.8350	8.39003E-06
0.8350	0.8400	7.28494E-06
0.8400	0.8450	7.02784E-06
0.8450	0.8500	6.75801E-06
0.8500	0.8550	6.41784E-06
0.8550	0.8600	5.91515E-06
0.8600	0.8650	5.79095E-06
0.8650	0.8700	4.91133E-06
0.8700	0.8750	5.22811E-06
0.8750	0.8800	4.89508E-06
0.8800	0.8850	4.66628E-06
0.8850	0.8900	4.74327E-06
0.8900	0.8950	4.51649E-06
0.8950	0.9000	4.31009E-06
0.9000	0.9050	4.09377E-06
0.9050	0.9100	4.26308E-06
0.9100	0.9150	3.50715E-06
0.9150	0.9200	3.80230E-06
0.9200	0.9250	3.68380E-06
0.9250	0.9300	3.41160E-06
0.9300	0.9350	3.53763E-06
0.9350	0.9400	3.89397E-06
0.9400	0.9450	3.51654E-06
0.9450	0.9500	3.27160E-06
0.9500	0.9550	3.20345E-06
0.9550	0.9600	3.68273E-06
0.9600	0.9650	3.35495E-06
0.9650	0.9700	3.23091E-06
0.9700	0.9750	3.22951E-06
0.9750	0.9800	3.53971E-06
0.9800	0.9850	3.74406E-06
0.9850	0.9900	4.46624E-06
0.9900	0.9950	5.62651E-06
0.9950	1.0000	9.32803E-06
1.0000	1.0050	1.57841E-05
1.0050	1.0100	2.74320E-05
1.0100	1.0150	4.11201E-05
1.0150	1.0200	5.06777E-05
1.0200	1.0250	4.97721E-05
1.0250	1.0300	3.83607E-05
1.0300	1.0350	2.50645E-05
1.0350	1.0400	1.35175E-05
1.0400	1.0450	7.25233E-06
1.0450	1.0500	4.77618E-06
1.0500	1.0550	3.54305E-06
1.0550	1.0600	2.81000E-06
1.0600	1.0650	2.63397E-06
1.0650	1.0700	2.32390E-06
1.0700	1.0750	2.44129E-06
1.0750	1.0800	2.65398E-06
1.0800	1.0850	2.15655E-06
1.0850	1.0900	1.95112E-06
1.0900	1.0950	2.05465E-06
1.0950	1.1000	2.27407E-06
1.1000	1.1050	1.91163E-06
1.1050	1.1100	2.58086E-06
1.1100	1.1150	1.78230E-06
1.1150	1.1200	1.79326E-06
1.1200	1.1250	2.26391E-06
1.1250	1.1300	1.91463E-06
1.1300	1.1350	1.75062E-06
1.1350	1.1400	2.01897E-06
1.1400	1.1450	1.96234E-06
1.1450	1.1500	1.77412E-06
1.1500	1.1550	1.56657E-06
1.1550	1.1600	1.74518E-06
1.1600	1.1650	1.88632E-06
1.1650	1.1700	1.70655E-06
1.1700	1.1750	1.91714E-06
1.1750	1.1800	1.74536E-06
1.1800	1.1850	1.40647E-06
1.1850	1.1900	1.52693E-06
1.1900	1.1950	1.54016E-06
1.1950	1.2000	1.27106E-06
1.2000	1.2050	1.40630E-06
1.2050	1.2100	1.63744E-06
1.2100	1.2150	1.45070E-06
1.2150	1.2200	1.33571E-06
1.2200	1.2250	1.54020E-06
1.2250	1.2300	1.36096E-06
1.2300	1.2350	1.76600E-06
1.2350	1.2400	1.25993E-06
1.2400	1.2450	1.35311E-06
1.2450	1.2500	1.35867E-06
1.2500	1.2550	1.19368E-06
1.2550	1.2600	1.27610E-06
1.2600	1.2650	1.43630E-06
1.2650	1.2700	8.91116E-07
1.2700	1.2750	1.33567E-06
1.2750	1.2800	1.48797E-06
1.2800	1.2850	9.31331E-07
1.2850	1.2900	1.20562E-06
1.2900	1.2950	1.17920E-06
1.2950	1.3000	1.26686E-06
1.3000	1.3050	1.13905E-06
1.3050	1.3100	1.00995E-06
1.3100	1.3150	1.03534E-06
1.3150	1.3200	1.33905E-06
1.3200	1.3250	1.29675E-06
1.3250	1.3300	1.30155E-06
1.3300	1.3350	1.33368E-06
1.3350	1.3400	9.15703E-07
1.3400	1.3450	1.00631E-06
1.3450	1.3500	1.14414E-06
1.3500	1.3550	1.25642E-06
1.3550	1.3600	1.18179E-06
1.3600	1.3650	1.05678E-06
1.3650	1.3700	6.92779E-07
1.3700	1.3750	9.84138E-07
1.3750	1.3800	9.08432E-07
1.3800	1.3850	1.01331E-06
1.3850	1.3900	8.92415E-07
1.3900	1.3950	1.14878E-06
1.3950	1.4000	8.53355E-07
1.4000	1.4050	1.15548E-06
1.4050	1.4100	8.65368E-07
1.4100	1.4150	7.59560E-07
1.4150	1.4200	1.04295E-06
1.4200	1.4250	8.01080E-07
1.4250	1.4300	8.51995E-07
1.4300	1.4350	7.90094E-07
1.4350	1.4400	1.09108E-06
1.4400	1.4450	8.76282E-07
1.4450	1.4500	8.69925E-07
1.4500	1.4550	7.64806E-07
1.4550	1.4600	5.50076E-07
1.4600	1.4650	9.52737E-07
1.4650	1.4700	9.22874E-07
1.4700	1.4750	7.92201E-07
1.4750	1.4800	5.70651E-07
1.4800	1.4850	6.32208E-07
1.4850	1.4900	8.01736E-07
1.4900	1.4950	7.03808E-07
1.4950	1.5000	6.80751E-07
1.5000	1.5050	9.75750E-07
1.5050	1.5100	9.50497E-07
1.5100	1.5150	7.08253E-07
1.5150	1.5200	9.05713E-07
1.5200	1.5250	1.01706E-06
1.5250	1.5300	9.49550E-07
1.5300	1.5350	1.00352E-06
1.5350	1.5400	6.56007E-07
1.5400	1.5450	7.75495E-07
1.5450	1.5500	6.40942E-07
1.5500	1.5550	5.08820E-07
1.5550	1.5600	8.90562E-07
1.5600	1.5650	7.49885E-07
1.5650	1.5700	5.62688E-07
1.5700	1.5750	5.90296E-07
1.5750	1.5800	7.28009E-07
1.5800	1.5850	6.42537E-07
1.5850	1.5900	7.51029E-07
1.5900	1.5950	6.71376E-07
1.5950	1.6000	4.04550E-07
1.6000	1.6050	6.99842E-07
1.6050	1.6100	7.23881E-07
1.6100	1.6150	7.75539E-07
1.6150	1.6200	6.71256E-07
1.6200	1.6250	5.33547E-07
1.6250	1.6300	5.61533E-07
1.6300	1.6350	5.92522E-07
1.6350	1.6400	3.91633E-07
1.6400	1.6450	4.25181E-07
1.6450	1.6500	8.55756E-07
1.6500	1.6550	6.69569E-07
1.6550	1.6600	7.20072E-07
1.6600	1.6650	5.02346E-07
1.6650	1.6700	4.76442E-07
1.6700	1.6750	5.33445E-07
1.6750	1.6800	5.06968E-07
1.6800	1.6850	6.75297E-07
1.6850	1.6900	3.38351E-07
1.6900	1.6950	5.40927E-07
1.6950	1.7000	4.80976E-07
1.7000	1.7050	6.45117E-07
1.7050	1.7100	4.79935E-07
1.7100	1.7150	7.29884E-07
1.7150	1.7200	6.15177E-07
1.7200	1.7250	6.09731E-07
1.7250	1.7300	3.13647E-07
1.7300	1.7350	7.46762E-07
1.7350	1.7400	2.96322E-07
1.7400	1.7450	4.74196E-07
1.7450	1.7500	4.74332E-07
1.7500	1.7550	7.72487E-07
1.7550	1.7600	5.55245E-07
1.7600	1.7650	4.73119E-07
1.7650	1.7700	5.00469E-07
1.7700	1.7750	3.62302E-07
1.7750	1.7800	4.71707E-07
1.7800	1.7850	6.92347E-07
1.7850	1.7900	5.79338E-07
1.7900	1.7950	7.66761E-07
1.7950	1.8000	5.84059E-07
1.8000	1.8050	2.83340E-07
1.8050	1.8100	5.33202E-07
1.8100	1.8150	4.67221E-07
1.8150	1.8200	3.66672E-07
1.8200	1.8250	4.70500E-07
1.8250	1.8300	3.89358E-07
1.8300	1.8350	3.71908E-07
1.8350	1.8400	3.64781E-07
1.8400	1.8450	4.79545E-07
1.8450	1.8500	4.14422E-07
1.8500	1.8550	3.98289E-07
1.8550	1.8600	4.15029E-07
1.8600	1.8650	5.49728E-07
1.8650	1.8700	3.89861E-07
1.8700	1.8750	4.20203E-07
1.8750	1.8800	4.45094E-07
1.8800	1.8850	3.61666E-07
1.8850	1.8900	4.81235E-07
1.8900	1.8950	3.11254E-07
1.8950	1.9000	3.36915E-07
1.9000	1.9050	4.70491E-07
1.9050	1.9100	4.15383E-07
1.9100	1.9150	5.30012E-07
1.9150	1.9200	4.71979E-07
1.9200	1.9250	4.44892E-07
1.9250	1.9300	3.33067E-07
1.9300	1.9350	3.64368E-07
1.9350	1.9400	3.36726E-07
1.9400	1.9450	3.85433E-07
1.9450	1.9500	3.64556E-07
1.9500	1.9550	3.32708E-07
1.9550	1.9600	3.60790E-07
1.9600	1.9650	3.05928E-07
1.9650	1.9700	3.32592E-07
1.9700	1.9750	4.69592E-07
1.9750	1.9800	3.15806E-07
1.9800	1.9850	2.79868E-07
1.9850	1.9900	3.89508E-07
1.9900	1.9950	3.62994E-07
1.9950	2.0000	3.56997E-07
2.0000	2.0050	2.79542E-07
2.0050	2.0100	1.42670E-07
2.0100	2.0150	3.86406E-07
2.0150	2.0200	3.35895E-07
2.0200	2.0250	5.01542E-07
2.0250	2.0300	3.87059E-07
2.0300	2.0350	4.39121E-07
2.0350	2.0400	3.05482E-07
2.0400	2.0450	2.78404E-07
2.0450	2.0500	3.08085E-07
2.0500	2.0550	3.33360E-07
2.0550	2.0600	2.79050E-07
2.0600	2.0650	3.04002E-07
2.0650	2.0700	2.52159E-07
2.0700	2.0750	3.90930E-07
2.0750	2.0800	4.15990E-07
2.0800	2.0850	4.15348E-07
2.0850	2.0900	3.29330E-07
2.0900	2.0950	4.09817E-07
2.0950	2.1000	2.51646E-07
2.1000	2.1050	2.78806E-07
2.1050	2.1100	2.72320E-07
2.1100	2.1150	2.21695E-07
2.1150	2.1200	4.11166E-07
2.1200	2.1250	1.95881E-07
2.1250	2.1300	3.86447E-07
2.1300	2.1350	3.30597E-07
2.1350	2.1400	1.17086E-07
2.1400	2.1450	3.03029E-07
2.1450	2.1500	3.02848E-07
2.1500	2.1550	3.17879E-07
2.1550	2.1600	1.68405E-07
2.1600	2.1650	3.01857E-07
2.1650	2.1700	2.22445E-07
2.1700	2.1750	2.25141E-07
2.1750	2.1800	2.48265E-07
2.1800	2.1850	1.94402E-07
2.1850	2.1900	2.73527E-07
2.1900	2.1950	2.75706E-07
2.1950	2.2000	2.76599E-07
2.2000	2.2050	2.75414E-07
2.2050	2.2100	2.75039E-07
2.2100	2.2150	2.77691E-07
2.2150	2.2200	3.05417E-07
2.2200	2.2250	1.14743E-07
2.2250	2.2300	8.67756E-08
2.2300	2.2350	2.23343E-07
2.2350	2.2400	2.50881E-07
2.2400	2.2450	1.94787E-07
2.2450	2.2500	2.57129E-07
2.2500	2.2550	2.46897E-07
2.2550	2.2600	1.40113E-07
2.2600	2.2650	2.76422E-07
2.2650	2.2700	2.75282E-07
2.2700	2.2750	1.41406E-07
2.2750	2.2800	1.11344E-07
2.2800	2.2850	1.11121E-07
2.2850	2.2900	3.03537E-07
2.2900	2.2950	1.41888E-07
2.2950	2.3000	2.25148E-07
2.3000	2.3050	1.37486E-07
2.3050	2.3100	1.11390E-07
2.3100	2.3150	1.19013E-07
2.3150	2.3200	1.93346E-07
2.3200	2.3250	1.41748E-07
2.3250	2.3300	3.27567E-07
2.3300	2.3350	2.21733E-07
2.3350	2.3400	1.41786E-07
2.3400	2.3450	1.68787E-07
2.3450	2.3500	3.04967E-08
2.3500	2.3550	1.12361E-07
2.3550	2.3600	2.77229E-07
2.3600	2.3650	1.39477E-07
2.3650	2.3700	1.38511E-07
2.3700	2.3750	8.53536E-08
2.3750	2.3800	1.39266E-07
2.3800	2.3850	1.68805E-07
2.3850	2.3900	8.48685E-08
2.3900	2.3950	1.64762E-07
2.3950	2.4000	1.94667E-07
2.4000	2.4050	1.39973E-07
2.4050	2.4100	3.13306E-08
2.4100	2.4150	1.10721E-07
2.4150	2.4200	1.17406E-07
2.4200	2.4250	1.92032E-07
2.4250	2.4300	1.13159E-07
2.4300	2.4350	1.39825E-07
2.4350	2.4400	8.37053E-08
2.4400	2.4450	2.46492E-07
2.4450	2.4500	1.65968E-07
2.4500	2.4550	2.95132E-08
2.4550	2.4600	1.15272E-07
2.4600	2.4650	1.64146E-07
2.4650	2.4700	1.68119E-07
2.4700	2.4750	1.40843E-07
2.4750	2.4800	1.11239E-07
2.4800	2.4850	1.40342E-07
2.4850	2.4900	1.44740E-07
2.4900	2.4950	8.63341E-08
2.4950	2.5000	1.11246E-07
2.5000	2.5050	5.81313E-08
2.5050	2.5100	8.57899E-08
2.5100	2.5150	1.12441E-07
2.5150	2.5200	2.21028E-07
2.5200	2.5250	1.39058E-07
2.5250	2.5300	2.19997E-07
2.5300	2.5350	1.40058E-07
2.5350	2.5400	5.79429E-08
2.5400	2.5450	8.55221E-08
2.5450	2.5500	1.15087E-07
2.5500	2.5550	1.39361E-07
2.5550	2.5600	1.37530E-07
2.5600	2.5650	1.13069E-07
2.5650	2.5700	5.72111E-08
2.5700	2.5750	1.39094E-07
2.5750	2.5800	1.13634E-07
2.5800	2.5850	1.09531E-07
2.5850	2.5900	1.10153E-07
2.5900	2.5950	1.10051E-07
2.5950	2.6000	1.67822E-07
2.6000	2.6050	8.50734E-08
2.6050	2.6100	5.78443E-08
2.6100	2.6150	3.09653E-08
2.6150	2.6200	5.71636E-08
2.6200	2.6250	5.71428E-08
2.6250	2.6300	1.36629E-07
2.6300	2.6350	1.12206E-07
2.6350	2.6400	2.46857E-07
2.6400	2.6450	5.52536E-08
2.6450	2.6500	1.66029E-07
2.6500	2.6550	1.11991E-07
2.6550	2.6600	1.10017E-07
2.6600	2.6650	8.49988E-08
2.6650	2.6700	5.74433E-08
2.6700	2.6750	8.70544E-08
2.6750	2.6800	1.11731E-07
2.6800	2.6850	1.13038E-07
2.6850	2.6900	8.26194E-08
2.6900	2.6950	1.14283E-07
2.6950	2.7000	2.20234E-07
2.7000	2.7050	2.93831E-08
2.7050	2.7100	1.10430E-07
2.7100	2.7150	5.71814E-08
2.7150	2.7200	8.33955E-08
2.7200	2.7250	1.89731E-07
2.7250	2.7300	8.18542E-08
2.7300	2.7350	5.64309E-08
2.7350	2.7400	3.03704E-08
2.7400	2.7450	9.00364E-08
2.7450	2.7500	2.82376E-08
2.7500	2.7550	1.37815E-07
2.7550	2.7600	5.60972E-08
2.7600	2.7650	3.11775E-08
2.7650	2.7700	8.40371E-08
2.7700	2.7750	3.05062E-08
2.7750	2.7800	5.67956E-08
2.7800	2.7850	1.10288E-07
2.7850	2.7900	5.67895E-08
2.7900	2.7950	8.44234E-08
2.7950	2.8000	5.63246E-08
2.8000	2.8050	2.83235E-09
2.8050	2.8100	1.37614E-07
2.8100	2.8150	8.35066E-08
2.8150	2.8200	8.60213E-08
2.8200	2.8250	2.80319E-08
2.8250	2.8300	5.99347E-08
2.8300	2.8350	2.83327E-08
2.8350	2.8400	3.60676E-09
2.8400	2.8450	1.09806E-07
2.8450	2.8500	8.33949E-08
2.8500	2.8550	1.09907E-07
2.8550	2.8600	2.68568E-09
2.8600	2.8650	5.72667E-08
2.8650	2.8700	3.00422E-08
2.8700	2.8750	5.53390E-08
2.8750	2.8800	5.79700E-08
2.8800	2.8850	5.73319E-08
2.8850	2.8900	8.24860E-08
2.8900	2.8950	3.09144E-08
2.8950	2.9000	5.73064E-08
2.9000	2.9050	3.01428E-08
2.9050	2.9100	1.37393E-07
2.9100	2.9150	8.37501E-08
2.9150	2.9200	8.40232E-08
2.9200	2.9250	6.02377E-08
2.9250	2.9300	6.00615E-08
2.9300	2.9350	6.92452E-09
2.9350	2.9400	6.31576E-08
2.9400	2.9450	6.94961E-08
2.9450	2.9500	7.50683E-08
2.9500	2.9550	8.01492E-08
2.9550	2.9600	1.18726E-07
2.9600	2.9650	1.09371E-07
2.9650	2.9700	1.03795E-07
2.9700	2.9750	1.58820E-07
2.9750	2.9800	1.53240E-07
2.9800	2.9850	2.39796E-07
2.9850	2.9900	3.20956E-07
2.9900	2.9950	4.03614E-07
2.9950	3.0000	5.74057E-07
3.0000	3.0050	6.90336E-07
3.0050	3.0100	9.38616E-07
3.0100	3.0150	1.13888E-06
3.0150	3.0200	1.40043E-06
3.0200	3.0250	1.67532E-06
3.0250	3.0300	2.12928E-06
3.0300	3.0350	2.54033E-06
3.0350	3.0400	2.96571E-06
3.0400	3.0450	3.37568E-06
3.0450	3.0500	3.92338E-06
3.0500	3.0550	4.52811E-06
3.0550	3.0600	5.13144E-06
3.0600	3.0650	5.68071E-06
3.0650	3.0700	6.18369E-06
3.0700	3.0750	6.67035E-06
3.0750	3.0800	7.03721E-06
3.0800	3.0850	7.46245E-06
3.0850	3.0900	7.63558E-06
3.0900	3.0950	7.80468E-06
3.0950	3.1000	7.87036E-06
3.1000	3.1050	7.81436E-06
3.1050	3.1100	7.56753E-06
3.1100	3.1150	7.28204E-06
3.1150	3.1200	6.96439E-06
3.1200	3.1250	6.43270E-06
3.1250	3.1300	5.93740E-06
3.1300	3.1350	5.40270E-06
3.1350	3.1400	4.76922E-06
3.1400	3.1450	4.26924E-06
3.1450	3.1500	3.72504E-06
3.1500	3.1550	3.14458E-06
3.1550	3.1600	2.62149E-06
3.1600	3.1650	2.16990E-06
3.1650	3.1700	1.74364E-06
3.1700	3.1750	1.44722E-06
3.1750	3.1800	1.12461E-06
3.1800	3.1850	8.55214E-07
3.1850	3.1900	7.11811E-07
3.1900	3.1950	6.16929E-07
3.1950	3.2000	4.13082E-07
3.2000	3.2050	3.25924E-07
3.2050	3.2100	2.65807E-07
3.2100	3.2150	1.76126E-07
3.2150	3.2200	1.22680E-07
3.2200	3.2250	1.21121E-07
3.2250	3.2300	7.32170E-08
3.2300	3.2350	8.89340E-08
3.2350	3.2400	7.91379E-08
3.2400	3.2450	4.15266E-08
3.2450	3.2500	3.71058E-08
3.2500	3.2550	3.12282E-08
3.2550	3.2600	5.83001E-08
3.2600	3.2650	3.61856E-09
3.2650	3.2700	5.84382E-08
3.2700	3.2750	3.39424E-09
3.2750	3.2800	2.90749E-09
3.2800	3.2850	3.07453E-08
3.2850	3.2900	3.01271E-08
3.2900	3.2950	2.49472E-09
3.2950	3.3000	4.27726E-09
3.3000	3.3050	3.03484E-08
3.3050	3.3100	2.98650E-08
3.3100	3.3150	2.75482E-08
3.3150	3.3200	1.76296E-09
3.3200	3.3250	8.93953E-10
3.3250	3.3300	5.49379E-08
3.3300	3.3350	2.87709E-08
3.3350	3.3400	1.10263E-07
3.3400	3.3450	5.68967E-08
3.3450	3.3500	2.47935E-09
3.3500	3.3550	2.90569E-08
3.3550	3.3600	2.81352E-08
3.3600	3.3650	9.21083E-10
3.3650	3.3700	3.86690E-10
3.3700	3.3750	2.87586E-08
3.3750	3.3800	1.62774E-09
3.3800	3.3850	5.51658E-08
3.3850	3.3900	2.66682E-12
3.3900	3.3950	8.23137E-08
3.3950	3.4000	2.14880E-09
3.4000	3.4050	1.09463E-07
3.4050	3.4100	1.05204E-09
3.4100	3.4150	2.75771E-08
3.4150	3.4200	2.74636E-08
3.4200	3.4250	2.93688E-08
3.4250	3.4300	1.02575E-09
3.4300	3.4350	4.82265E-09
3.4350	3.4400	1.59569E-09
3.4400	3.4450	5.54530E-08
3.4450	3.4500	5.54913E-08
3.4500	3.4550	7.24651E-10
3.4550	3.4600	2.75925E-08
3.4600	3.4650	2.84456E-08
3.4650	3.4700	1.31012E-10
3.4700	3.4750	1.08354E-07
3.4750	3.4800	2.83284E-09
3.4800	3.4850	2.82935E-08
3.4850	3.4900	1.23578E-09
3.4900	3.4950	2.86720E-08
3.4950	3.5000	7.86257E-10
3.5000	3.5050	2.04911E-09
3.5050	3.5100	2.98440E-08
3.5100	3.5150	2.05051E-09
3.5150	3.5200	2.88985E-08
3.5200	3.5250	5.62548E-08
3.5250	3.5300	3.03818E-09
3.5300	3.5350	3.12020E-08
3.5350	3.5400	3.94679E-09
3.5400	3.5450	3.31294E-08
3.5450	3.5500	5.96684E-08
3.5500	3.5550	6.77380E-09
3.5550	3.5600	3.56773E-08
3.5600	3.5650	9.60510E-09
3.5650	3.5700	1.24098E-08
3.5700	3.5750	1.51027E-08
3.5750	3.5800	1.58238E-08
3.5800	3.5850	4.73451E-08
3.5850	3.5900	4.91032E-08
3.5900	3.5950	2.58970E-08
3.5950	3.6000	5.81067E-08
3.6000	3.6050	3.29734E-08
3.6050	3.6100	3.79805E-08
3.6100	3.6150	7.01757E-08
3.6150	3.6200	4.66658E-08
3.6200	3.6250	7.86516E-08
3.6250	3.6300	5.71645E-08
3.6300	3.6350	9.01052E-08
3.6350	3.6400	9.39739E-08
3.6400	3.6450	7.25947E-08
3.6450	3.6500	7.58496E-08
3.6500	3.6550	1.07741E-07
3.6550	3.6600	8.27992E-08
3.6600	3.6650	8.78774E-08
3.6650	3.6700	1.72828E-07
3.6700	3.6750	1.20003E-07
3.6750	3.6800	9.37370E-08
3.6800	3.6850	9.43227E-08
3.6850	3.6900	9.43720E-08
3.6900	3.6950	1.21245E-07
3.6950	3.7000	1.18637E-07
3.7000	3.7050	1.43062E-07
3.7050	3.7100	8.71979E-08
3.7100	3.7150	8.34933E-08
3.7150	3.7200	7.98583E-08
3.7200	3.7250	1.03293E-07
3.7250	3.7300	6.96437E-08
3.7300	3.7350	6.48016E-08
3.7350	3.7400	5.95993E-08
3.7400	3.7450	8.16522E-08
3.7450	3.7500	5.04357E-08
3.7500	3.7550	7.17080E-08
3.7550	3.7600	6.72400E-08
3.7600	3.7650	3.49656E-08
3.7650	3.7700	3.09616E-08
3.7700	3.7750	2.72948E-08
3.7750	3.7800	2.41393E-08
3.7800	3.7850	2.04545E-08
3.7850	3.7900	1.84586E-08
3.7900	3.7950	4.21864E-08
3.7950	3.8000	6.71269E-08
3.8000	3.8050	1.04390E-08
3.8050	3.8100	1.05549E-08
3.8100	3.8150	6.21088E-08
3.8150	3.8200	5.99621E-09
3.8200	3.8250	5.89120E-09
3.8250	3.8300	3.09893E-08
3.8300	3.8350	3.03100E-08
3.8350	3.8400	3.83585E-09
3.8400	3.8450	5.70417E-08
3.8450	3.8500	5.59246E-08
3.8500	3.8550	8.96105E-10
3.8550	3.8600	7.27603E-10
3.8600	3.8650	1.20265E-09
3.8650	3.8700	2.80656E-08
3.8700	3.8750	7.08705E-10
3.8750	3.8800	2.76595E-08
3.8800	3.8850	3.76675E-10
3.8850	3.8900	7.56841E-10
3.8900	3.8950	1.30943E-09
3.8950	3.9000	2.71647E-08
3.9000	3.9050	2.11081E-09
3.9050	3.9100	9.41851E-10
3.9100	3.9150	2.05239E-11
3.9150	3.9200	3.32709E-10
3.9200	3.9250	2.80931E-08
3.9250	3.9300	2.84914E-11
3.9300	3.9350	2.86195E-11
3.9350	3.9400	1.18888E-09
3.9400	3.9450	7.61868E-10
3.9450	3.9500	3.26297E-10
3.9500	3.9550	3.62814E-10
3.9550	3.9600	2.70602E-08
3.9600	3.9650	2.77975E-08
3.9650	3.9700	2.70576E-08
3.9700	3.9750	2.70574E-08
3.9750	3.9800	5.84967E-10
3.9800	3.9850	2.70574E-08
3.9850	3.9900	2.95103E-08
3.9900	3.9950	2.70653E-08
3.9950	4.0000	1.34883E-09
***
0	0.0050	8.31305E-04
0.0050	0.0100	9.85897E-04
0.0100	0.0150	5.89909E-04
0.0150	0.0200	3.34927E-04
0.0200	0.0250	2.16990E-04
0.0250	0.0300	1.58064E-04
0.0300	0.0350	1.26819E-04
0.0350	0.0400	1.04149E-04
0.0400	0.0450	8.70562E-05
0.0450	0.0500	7.51367E-05
0.0500	0.0550	6.43422E-05
0.0550	0.0600	5.55309E-05
0.0600	0.0650	4.83445E-05
0.0650	0.0700	4.18566E-05
0.0700	0.0750	3.59051E-05
0.0750	0.0800	3.10117E-05
0.0800	0.0850	2.62442E-05
0.0850	0.0900	2.26036E-05
0.0900	0.0950	1.91752E-05
0.0950	0.1000	1.62848E-05
0.1000	0.1050	1.35475E-05
0.1050	0.1100	1.09732E-05
0.1100	0.1150	8.95216E-06
0.1150	0.1200	7.46462E-06
0.1200	0.1250	6.08791E-06
0.1250	0.1300	5.37866E-06
0.1300	0.1350	4.69672E-06
0.1350	0.1400	4.52483E-06
0.1400	0.1450	4.29131E-06
0.1450	0.1500	4.13227E-06
0.1500	0.1550	3.94776E-06
0.1550	0.1600	3.75130E-06
0.1600	0.1650	3.62633E-06
0.1650	0.1700	3.54164E-06
0.1700	0.1750	3.29963E-06
0.1750	0.1800	3.18311E-06
0.1800	0.1850	3.06800E-06
0.1850	0.1900	2.95864E-06
0.1900	0.1950	2.93128E-06
0.1950	0.2000	2.87015E-06
0.2000	0.2050	2.61089E-06
0.2050	0.2100	2.61354E-06
0.2100	0.2150	2.46057E-06
0.2150	0.2200	2.34151E-06
0.2200	0.2250	2.36023E-06
0.2250	0.2300	2.24659E-06
0.2300	0.2350	2.16644E-06
0.2350	0.2400	2.15897E-06
0.2400	0.2450	2.04941E-06
0.2450	0.2500	2.06259E-06
0.2500	0.2550	1.91577E-06
0.2550	0.2600	1.85636E-06
0.2600	0.2650	1.79358E-06
0.2650	0.2700	1.75995E-06
0.2700	0.2750	1.65404E-06
0.2750	0.2800	1.70906E-06
0.2800	0.2850	1.61243E-06
0.2850	0.2900	1.57640E-06
0.2900	0.2950	1.53049E-06
0.2950	0.3000	1.42994E-06
0.3000	0.3050	1.46955E-06
0.3050	0.3100	1.38939E-06
0.3100	0.3150	1.33386E-06
0.3150	0.3200	1.34337E-06
0.3200	0.3250	1.24067E-06
0.3250	0.3300	1.21487E-06
0.3300	0.3350	1.16946E-06
0.3350	0.3400	1.16716E-06
0.3400	0.3450	1.09972E-06
0.3450	0.3500	1.05876E-06
0.3500	0.3550	1.05350E-06
0.3550	0.3600	1.00965E-06
0.3600	0.3650	9.36034E-07
0.3650	0.3700	8.98350E-07
0.3700	0.3750	8.78435E-07
0.3750	0.3800	8.90321E-07
0.3800	0.3850	8.39967E-07
0.3850	0.3900	8.27758E-07
0.3900	0.3950	7.86766E-07
0.3950	0.4000	7.44097E-07
0.4000	0.4050	7.49311E-07
0.4050	0.4100	6.83277E-07
0.4100	0.4150	6.56636E-07
0.4150	0.4200	6.34934E-07
0.4200	0.4250	6.21193E-07
0.4250	0.4300	6.05772E-07
0.4300	0.4350	5.79534E-07
0.4350	0.4400	5.34653E-07
0.4400	0.4450	5.42579E-07
0.4450	0.4500	4.97397E-07
0.4500	0.4550	5.11546E-07
0.4550	0.4600	4.84105E-07
0.4600	0.4650	4.72663E-07
0.4650	0.4700	4.31878E-07
0.4700	0.4750	4.10202E-07
0.4750	0.4800	3.53972E-07
0.4800	0.4850	3.60168E-07
0.4850	0.4900	3.64015E-07
0.4900	0.4950	3.40675E-07
0.4950	0.5000	3.11617E-07
0.5000	0.5050	3.23658E-07
0.5050	0.5100	3.22957E-07
0.5100	0.5150	2.98740E-07
0.5150	0.5200	2.89866E-07
0.5200	0.5250	3.16407E-07
0.5250	0.5300	2.93512E-07
0.5300	0.5350	3.03662E-07
0.5350	0.5400	2.82411E-07
0.5400	0.5450	2.81609E-07
0.5450	0.5500	2.72413E-07
0.5500	0.5550	2.89768E-07
0.5550	0.5600	2.81449E-07
0.5600	0.5650	3.07068E-07
0.5650	0.5700	2.76505E-07
0.5700	0.5750	2.78961E-07
0.5750	0.5800	3.18781E-07
0.5800	0.5850	3.01536E-07
0.5850	0.5900	3.01383E-07
0.5900	0.5950	2.96395E-07
0.5950	0.6000	3.37088E-07
0.6000	0.6050	3.14818E-07
0.6050	0.6100	2.92317E-07
0.6100	0.6150	2.99598E-07
0.6150	0.6200	3.20121E-07
0.6200	0.6250	3.07555E-07
0.6250	0.6300	2.88036E-07
0.6300	0.6350	2.85430E-07
0.6350	0.6400	2.81575E-07
0.6400	0.6450	2.98976E-07
0.6450	0.6500	2.63660E-07
0.6500	0.6550	2.62001E-07
0.6550	0.6600	2.82132E-07
0.6600	0.6650	2.97885E-07
0.6650	0.6700	3.11172E-07
0.6700	0.6750	2.88238E-07
0.6750	0.6800	3.12405E-07
0.6800	0.6850	3.32761E-07
0.6850	0.6900	3.35168E-07
0.6900	0.6950	3.62558E-07
0.6950	0.7000	3.64796E-07
0.7000	0.7050	3.79979E-07
0.7050	0.7100	3.93348E-07
0.7100	0.7150	3.95818E-07
0.7150	0.7200	4.18791E-07
0.7200	0.7250	4.46289E-07
0.7250	0.7300	4.77932E-07
0.7300	0.7350	4.79237E-07
0.7350	0.7400	5.26766E-07
0.7400	0.7450	5.53665E-07
0.7450	0.7500	5.77861E-07
0.7500	0.7550	6.81072E-07
0.7550	0.7600	8.01360E-07
0.7600	0.7650	1.11010E-06
0.7650	0.7700	1.62853E-06
0.7700	0.7750	2.20373E-06
0.7750	0.7800	2.71140E-06
0.7800	0.7850	2.88919E-06
0.7850	0.7900	2.49783E-06
0.7900	0.7950	1.91023E-06
0.7950	0.8000	1.31831E-06
0.8000	0.8050	8.41902E-07
0.8050	0.8100	5.67655E-07
0.8100	0.8150	4.19027E-07
0.8150	0.8200	3.03232E-07
0.8200	0.8250	2.81070E-07
0.8250	0.8300	2.46678E-07
0.8300	0.8350	2.36632E-07
0.8350	0.8400	1.93886E-07
0.8400	0.8450	1.62571E-07
0.8450	0.8500	1.53967E-07
0.8500	0.8550	1.43369E-07
0.8550	0.8600	1.51632E-07
0.8600	0.8650	1.41541E-07
0.8650	0.8700	1.23942E-07
0.8700	0.8750	1.32070E-07
0.8750	0.8800	1.22676E-07
0.8800	0.8850	1.08403E-07
0.8850	0.8900	1.06283E-07
0.8900	0.8950	9.17950E-08
0.8950	0.9000	1.02877E-07
0.9000	0.9050	8.31888E-08
0.9050	0.9100	8.45848E-08
0.9100	0.9150	8.61163E-08
0.9150	0.9200	9.15773E-08
0.9200	0.9250	9.15660E-08
0.9250	0.9300	6.59215E-08
0.9300	0.9350	8.78305E-08
0.9350	0.9400	8.99062E-08
0.9400	0.9450	5.51889E-08
0.9450	0.9500	8.27161E-08
0.9500	0.9550	7.02028E-08
0.9550	0.9600	9.01149E-08
0.9600	0.9650	9.02088E-08
0.9650	0.9700	8.43188E-08
0.9700	0.9750	8.79712E-08
0.9750	0.9800	9.20836E-08
0.9800	0.9850	9.79420E-08
0.9850	0.9900	1.33230E-07
0.9900	0.9950	2.42728E-07
0.9950	1.0000	3.67237E-07
1.0000	1.0050	6.25635E-07
1.0050	1.0100	9.73466E-07
1.0100	1.0150	1.27200E-06
1.0150	1.0200	1.47623E-06
1.0200	1.0250	1.43020E-06
1.0250	1.0300	1.19049E-06
1.0300	1.0350	8.31452E-07
1.0350	1.0400	5.37697E-07
1.0400	1.0450	3.08196E-07
1.0450	1.0500	1.65249E-07
1.0500	1.0550	1.06924E-07
1.0550	1.0600	8.18179E-08
1.0600	1.0650	8.78023E-08
1.0650	1.0700	6.81012E-08
1.0700	1.0750	5.81475E-08
1.0750	1.0800	6.22164E-08
1.0800	1.0850	5.16307E-08
1.0850	1.0900	5.07492E-08
1.0900	1.0950	5.43708E-08
1.0950	1.1000	4.36268E-08
1.1000	1.1050	6.81904E-08
1.1050	1.1100	5.68317E-08
1.1100	1.1150	3.74437E-08
1.1150	1.1200	2.60178E-08
1.1200	1.1250	3.52836E-08
1.1250	1.1300	2.47421E-08
1.1300	1.1350	6.22962E-08
1.1350	1.1400	4.23244E-08
1.1400	1.1450	3.08236E-08
1.1450	1.1500	3.92241E-08
1.1500	1.1550	3.41499E-08
1.1550	1.1600	3.19455E-08
1.1600	1.1650	3.40461E-08
1.1650	1.1700	3.64137E-08
1.1700	1.1750	4.67823E-08
1.1750	1.1800	4.23571E-08
1.1800	1.1850	2.81436E-08
1.1850	1.1900	4.63525E-08
1.1900	1.1950	3.96754E-08
1.1950	1.2000	3.03468E-08
1.2000	1.2050	3.06053E-08
1.2050	1.2100	3.42989E-08
1.2100	1.2150	2.33306E-08
1.2150	1.2200	3.51647E-08
1.2200	1.2250	3.39072E-08
1.2250	1.2300	2.51707E-08
1.2300	1.2350	2.54993E-08
1.2350	1.2400	3.35755E-08
1.2400	1.2450	2.25962E-08
1.2450	1.2500	2.69298E-08
1.2500	1.2550	2.47311E-08
1.2550	1.2600	3.57156E-08
1.2600	1.2650	2.72271E-08
1.2650	1.2700	3.32245E-08
1.2700	1.2750	3.19921E-08
1.2750	1.2800	2.86139E-08
1.2800	1.2850	1.30915E-08
1.2850	1.2900	1.95545E-08
1.2900	1.2950	1.08242E-08
1.2950	1.3000	3.11399E-08
1.3000	1.3050	2.40365E-08
1.3050	1.3100	3.49892E-08
1.3100	1.3150	3.94020E-08
1.3150	1.3200	1.96126E-08
1.3200	1.3250	2.85301E-08
1.3250	1.3300	2.82605E-08
1.3300	1.3350	1.07581E-08
1.3350	1.3400	1.72090E-08
1.3400	1.3450	3.02464E-08
1.3450	1.3500	2.11434E-08
1.3500	1.3550	3.45227E-08
1.3550	1.3600	2.34739E-08
1.3600	1.3650	3.23315E-08
1.3650	1.3700	1.46395E-08
1.3700	1.3750	2.36074E-08
1.3750	1.3800	2.53276E-08
1.3800	1.3850	2.35647E-08
1.3850	1.3900	2.80634E-08
1.3900	1.3950	2.52998E-08
1.3950	1.4000	1.67377E-08
1.4000	1.4050	2.98717E-08
1.4050	1.4100	1.63881E-08
1.4100	1.4150	2.54603E-08
1.4150	1.4200	2.55887E-08
1.4200	1.4250	1.44679E-08
1.4250	1.4300	1.85843E-08
1.4300	1.4350	2.76717E-08
1.4350	1.4400	1.45841E-08
1.4400	1.4450	2.55409E-08
1.4450	1.4500	2.32325E-08
1.4500	1.4550	1.41822E-08
1.4550	1.4600	1.18431E-08
1.4600	1.4650	2.07445E-08
1.4650	1.4700	3.20694E-08
1.4700	1.4750	3.16648E-08
1.4750	1.4800	1.84371E-08
1.4800	1.4850	1.85449E-08
1.4850	1.4900	2.94426E-08
1.4900	1.4950	1.62645E-08
1.4950	1.5000	2.08336E-08
1.5000	1.5050	1.39086E-08
1.5050	1.5100	1.87175E-08
1.5100	1.5150	1.15532E-08
1.5150	1.5200	2.30025E-08
1.5200	1.5250	1.17096E-08
1.5250	1.5300	1.38576E-08
1.5300	1.5350	3.60556E-08
1.5350	1.5400	1.62902E-08
1.5400	1.5450	9.49463E-09
1.5450	1.5500	1.17916E-08
1.5500	1.5550	1.15013E-08
1.5550	1.5600	1.62251E-08
1.5600	1.5650	1.60562E-08
1.5650	1.5700	1.84464E-08
1.5700	1.5750	1.17340E-08
1.5750	1.5800	2.93411E-08
1.5800	1.5850	1.37752E-08
1.5850	1.5900	9.33638E-09
1.5900	1.5950	1.87336E-08
1.5950	1.6000	2.03596E-08
1.6000	1.6050	1.81740E-08
1.6050	1.6100	2.26350E-08
1.6100	1.6150	1.81910E-08
1.6150	1.6200	2.46979E-08
1.6200	1.6250	1.38610E-08
1.6250	1.6300	1.60145E-08
1.6300	1.6350	2.24885E-08
1.6350	1.6400	1.36211E-08
1.6400	1.6450	1.58741E-08
1.6450	1.6500	1.80848E-08
1.6500	1.6550	1.60616E-08
1.6550	1.6600	1.15864E-08
1.6600	1.6650	1.58727E-08
1.6650	1.6700	9.30940E-09
1.6700	1.6750	1.15933E-08
1.6750	1.6800	1.59258E-08
1.6800	1.6850	7.09209E-09
1.6850	1.6900	2.01870E-08
1.6900	1.6950	2.03926E-08
1.6950	1.7000	2.46100E-08
1.7000	1.7050	9.10987E-09
1.7050	1.7100	1.13974E-08
1.7100	1.7150	9.13275E-09
1.7150	1.7200	2.45694E-08
1.7200	1.7250	2.01179E-08
1.7250	1.7300	1.36348E-08
1.7300	1.7350	1.14412E-08
1.7350	1.7400	1.14423E-08
1.7400	1.7450	2.01440E-08
1.7450	1.7500	1.35673E-08
1.7500	1.7550	1.12880E-08
1.7550	1.7600	6.89897E-09
1.7600	1.7650	1.79332E-08
1.7650	1.7700	9.18038E-09
1.7700	1.7750	1.37843E-08
1.7750	1.7800	7.06237E-09
1.7800	1.7850	1.13430E-08
1.7850	1.7900	1.35433E-08
1.7900	1.7950	4.64838E-09
1.7950	1.8000	9.29562E-09
1.8000	1.8050	9.35766E-09
1.8050	1.8100	1.13676E-08
1.8100	1.8150	6.93299E-09
1.8150	1.8200	4.68231E-09
1.8200	1.8250	9.05872E-09
1.8250	1.8300	2.00957E-08
1.8300	1.8350	6.81899E-09
1.8350	1.8400	1.13551E-08
1.8400	1.8450	1.35939E-08
1.8450	1.8500	1.58018E-08
1.8500	1.8550	9.49192E-09
1.8550	1.8600	9.02924E-09
1.8600	1.8650	1.12208E-08
1.8650	1.8700	9.17276E-09
1.8700	1.8750	1.12273E-08
1.8750	1.8800	9.05639E-09
1.8800	1.8850	6.96316E-09
1.8850	1.8900	4.79910E-09
1.8900	1.8950	6.86976E-09
1.8950	1.9000	1.34419E-08
1.9000	1.9050	1.34594E-08
1.9050	1.9100	6.76027E-09
1.9100	1.9150	9.06764E-09
1.9150	1.9200	2.00461E-08
1.9200	1.9250	1.56709E-08
1.9250	1.9300	2.00913E-08
1.9300	1.9350	5.08972E-10
1.9350	1.9400	9.34792E-09
1.9400	1.9450	6.68644E-09
1.9450	1.9500	6.82175E-09
1.9500	1.9550	4.59038E-09
1.9550	1.9600	6.83842E-09
1.9600	1.9650	1.78992E-08
1.9650	1.9700	6.82658E-09
1.9700	1.9750	1.34348E-08
1.9750	1.9800	4.66779E-09
1.9800	1.9850	4.55932E-09
1.9850	1.9900	1.56274E-08
1.9900	1.9950	1.33722E-08
1.9950	2.0000	4.60098E-09
2.0000	2.0050	9.00168E-09
2.0050	2.0100	1.12176E-08
2.0100	2.0150	2.43814E-09
2.0150	2.0200	9.02240E-09
2.0200	2.0250	4.62219E-09
2.0250	2.0300	6.81472E-09
2.0300	2.0350	1.33840E-08
2.0350	2.0400	1.12707E-08
2.0400	2.0450	1.34034E-08
2.0450	2.0500	6.76742E-09
2.0500	2.0550	2.44460E-09
2.0550	2.0600	6.82244E-09
2.0600	2.0650	1.56691E-08
2.0650	2.0700	9.02343E-09
2.0700	2.0750	1.56856E-08
2.0750	2.0800	1.33964E-08
2.0800	2.0850	1.34290E-08
2.0850	2.0900	1.11551E-08
2.0900	2.0950	1.78363E-08
2.0950	2.1000	6.84336E-09
2.1000	2.1050	1.34004E-08
2.1050	2.1100	9.06004E-09
2.1100	2.1150	6.77663E-09
2.1150	2.1200	4.60798E-09
2.1200	2.1250	8.42815E-11
2.1250	2.1300	1.11862E-08
2.1300	2.1350	1.33253E-08
2.1350	2.1400	6.77455E-09
2.1400	2.1450	1.99534E-08
2.1450	2.1500	1.11685E-08
2.1500	2.1550	6.79531E-09
2.1550	2.1600	6.76497E-09
2.1600	2.1650	4.58642E-09
2.1650	2.1700	6.73773E-09
2.1700	2.1750	4.53289E-09
2.1750	2.1800	1.34112E-08
2.1800	2.1850	8.99377E-09
2.1850	2.1900	1.12240E-08
2.1900	2.1950	1.12077E-08
2.1950	2.2000	4.55126E-09
2.2000	2.2050	6.72499E-09
2.2050	2.2100	6.73633E-09
2.2100	2.2150	4.62429E-09
2.2150	2.2200	8.90728E-09
2.2200	2.2250	6.70271E-09
2.2250	2.2300	4.55824E-09
2.2300	2.2350	6.73977E-09
2.2350	2.2400	6.66945E-09
2.2400	2.2450	2.29113E-09
2.2450	2.2500	6.84903E-09
2.2500	2.2550	2.37568E-09
2.2550	2.2600	2.34712E-09
2.2600	2.2650	1.12402E-08
2.2650	2.2700	1.12123E-08
2.2700	2.2750	8.87218E-09
2.2750	2.2800	4.47997E-09
2.2800	2.2850	6.74259E-09
2.2850	2.2900	6.71412E-09
2.2900	2.2950	6.75841E-09
2.2950	2.3000	7.03283E-09
2.3000	2.3050	6.77299E-09
2.3050	2.3100	8.89402E-09
2.3100	2.3150	6.76489E-09
2.3150	2.3200	6.74495E-09
2.3200	2.3250	2.31823E-09
2.3250	2.3300	4.62055E-09
2.3300	2.3350	4.52646E-09
2.3350	2.3400	4.50425E-09
2.3400	2.3450	1.34030E-08
2.3450	2.3500	6.00621E-11
2.3500	2.3550	6.79830E-09
2.3550	2.3600	2.61469E-09
2.3600	2.3650	5.90527E-11
2.3650	2.3700	4.45162E-09
2.3700	2.3750	7.52845E-11
2.3750	2.3800	4.53495E-09
2.3800	2.3850	6.70698E-09
2.3850	2.3900	8.92165E-09
2.3900	2.3950	6.66373E-09
2.3950	2.4000	5.00178E-11
2.4000	2.4050	1.11532E-08
2.4050	2.4100	6.88606E-09
2.4100	2.4150	4.55111E-09
2.4150	2.4200	4.43987E-09
2.4200	2.4250	4.49677E-09
2.4250	2.4300	2.32234E-09
2.4300	2.4350	1.12452E-08
2.4350	2.4400	6.70999E-09
2.4400	2.4450	2.30719E-09
2.4450	2.4500	6.71744E-09
2.4500	2.4550	2.24666E-09
2.4550	2.4600	6.75353E-09
2.4600	2.4650	2.32850E-09
2.4650	2.4700	4.48902E-09
2.4700	2.4750	6.74630E-09
2.4750	2.4800	2.31226E-09
2.4800	2.4850	6.73294E-09
2.4850	2.4900	6.69203E-09
2.4900	2.4950	6.68421E-09
2.4950	2.5000	4.56422E-09
2.5000	2.5050	4.50591E-09
2.5050	2.5100	6.71456E-09
2.5100	2.5150	1.42852E-10
2.5150	2.5200	6.68493E-09
2.5200	2.5250	1.11921E-08
2.5250	2.5300	6.72314E-09
2.5300	2.5350	6.81264E-11
2.5350	2.5400	6.65234E-09
2.5400	2.5450	6.20349E-11
2.5450	2.5500	6.69052E-09
2.5500	2.5550	4.51937E-09
2.5550	2.5600	2.25010E-09
2.5600	2.5650	8.96968E-09
2.5650	2.5700	1.04035E-10
2.5700	2.5750	4.47522E-09
2.5750	2.5800	2.27635E-09
2.5800	2.5850	2.26820E-09
2.5850	2.5900	8.93313E-09
2.5900	2.5950	2.25499E-09
2.5950	2.6000	2.31579E-09
2.6000	2.6050	2.25638E-09
2.6050	2.6100	6.38239E-11
2.6100	2.6150	4.52875E-09
2.6150	2.6200	2.24354E-09
2.6200	2.6250	2.24157E-09
2.6250	2.6300	4.48052E-09
2.6300	2.6350	3.90732E-11
2.6350	2.6400	8.96615E-09
2.6400	2.6450	4.43871E-09
2.6450	2.6500	4.62150E-09
2.6500	2.6550	4.44122E-09
2.6550	2.6600	6.69730E-09
2.6600	2.6650	6.23204E-11
2.6650	2.6700	4.45139E-09
2.6700	2.6750	2.24655E-09
2.6750	2.6800	2.24930E-09
2.6800	2.6850	8.89396E-09
2.6850	2.6900	2.25087E-09
2.6900	2.6950	4.51400E-09
2.6950	2.7000	2.26700E-09
2.7000	2.7050	2.31154E-09
2.7050	2.7100	2.26790E-09
2.7100	2.7150	6.73798E-09
2.7150	2.7200	2.26173E-09
2.7200	2.7250	2.27403E-09
2.7250	2.7300	2.30102E-09
2.7300	2.7350	6.68429E-09
2.7350	2.7400	8.33525E-11
2.7400	2.7450	6.02883E-11
2.7450	2.7500	2.88918E-11
2.7500	2.7550	6.68414E-09
2.7550	2.7600	4.46394E-09
2.7600	2.7650	2.30715E-09
2.7650	2.7700	6.67607E-09
2.7700	2.7750	2.30644E-09
2.7750	2.7800	2.29482E-09
2.7800	2.7850	4.50280E-09
2.7850	2.7900	1.10033E-10
2.7900	2.7950	2.33012E-09
2.7950	2.8000	6.15153E-11
2.8000	2.8050	2.25309E-09
2.8050	2.8100	2.27478E-09
2.8100	2.8150	8.89090E-09
2.8150	2.8200	4.49983E-09
2.8200	2.8250	4.44331E-09
2.8250	2.8300	6.67051E-09
2.8300	2.8350	2.26483E-09
2.8350	2.8400	4.48346E-09
2.8400	2.8450	2.25749E-09
2.8450	2.8500	6.91082E-11
2.8500	2.8550	9.54971E-11
2.8550	2.8600	4.50390E-09
2.8600	2.8650	3.78931E-11
2.8650	2.8700	6.52385E-11
2.8700	2.8750	3.96128E-11
2.8750	2.8800	2.23441E-09
2.8800	2.8850	8.93974E-11
2.8850	2.8900	4.51085E-09
2.8900	2.8950	1.31884E-10
2.8950	2.9000	2.37141E-09
2.9000	2.9050	3.14852E-10
2.9050	2.9100	3.00243E-10
2.9100	2.9150	2.62380E-09
2.9150	2.9200	2.66143E-09
2.9200	2.9250	5.29581E-10
2.9250	2.9300	5.21766E-09
2.9300	2.9350	3.32743E-09
2.9350	2.9400	3.63170E-09
2.9400	2.9450	4.02636E-09
2.9450	2.9500	4.94393E-09
2.9500	2.9550	8.26026E-09
2.9550	2.9600	5.18004E-09
2.9600	2.9650	5.87774E-09
2.9650	2.9700	8.78631E-09
2.9700	2.9750	1.58762E-08
2.9750	2.9800	1.99587E-08
2.9800	2.9850	1.91420E-08
2.9850	2.9900	3.10986E-08
2.9900	2.9950	3.71813E-08
2.9950	3.0000	4.13055E-08
3.0000	3.0050	5.28892E-08
3.0050	3.0100	6.20392E-08
3.0100	3.0150	8.22694E-08
3.0150	3.0200	9.65098E-08
3.0200	3.0250	1.13423E-07
3.0250	3.0300	1.34228E-07
3.0300	3.0350	1.61478E-07
3.0350	3.0400	1.88942E-07
3.0400	3.0450	2.13787E-07
3.0450	3.0500	2.43273E-07
3.0500	3.0550	2.67794E-07
3.0550	3.0600	3.09163E-07
3.0600	3.0650	3.29526E-07
3.0650	3.0700	3.56055E-07
3.0700	3.0750	3.83555E-07
3.0750	3.0800	4.04209E-07
3.0800	3.0850	4.24149E-07
3.0850	3.0900	4.39438E-07
3.0900	3.0950	4.41114E-07
3.0950	3.1000	4.52342E-07
3.1000	3.1050	4.41868E-07
3.1050	3.1100	4.39605E-07
3.1100	3.1150	4.24233E-07
3.1150	3.1200	4.08506E-07
3.1200	3.1250	3.79596E-07
3.1250	3.1300	3.54667E-07
3.1300	3.1350	3.27478E-07
3.1350	3.1400	2.95024E-07
3.1400	3.1450	2.67290E-07
3.1450	3.1500	2.39647E-07
3.1500	3.1550	2.07083E-07
3.1550	3.1600	1.77819E-07
3.1600	3.1650	1.51010E-07
3.1650	3.1700	1.24676E-07
3.1700	3.1750	1.05698E-07
3.1750	3.1800	9.05367E-08
3.1800	3.1850	6.92214E-08
3.1850	3.1900	5.58984E-08
3.1900	3.1950	4.35553E-08
3.1950	3.2000	3.36729E-08
3.2000	3.2050	2.73856E-08
3.2050	3.2100	2.14331E-08
3.2100	3.2150	1.47916E-08
3.2150	3.2200	1.27358E-08
3.2200	3.2250	7.48744E-09
3.2250	3.2300	9.92016E-09
3.2300	3.2350	3.48309E-09
3.2350	3.2400	2.69488E-09
3.2400	3.2450	2.08866E-09
3.2450	3.2500	3.30199E-09
3.2500	3.2550	5.22828E-09
3.2550	3.2600	2.88321E-09
3.2600	3.2650	4.87949E-10
3.2650	3.2700	3.12610E-10
3.2700	3.2750	2.43867E-09
3.2750	3.2800	2.34401E-09
3.2800	3.2850	2.34763E-09
3.2850	3.2900	9.91189E-11
3.2900	3.2950	6.39441E-11
3.2950	3.3000	5.99536E-11
3.3000	3.3050	2.25034E-09
3.3050	3.3100	3.70684E-11
3.3100	3.3150	6.65802E-09
3.3150	3.3200	3.53922E-11
3.3200	3.3250	1.39319E-11
3.3250	3.3300	2.71322E-11
3.3300	3.3350	3.13915E-11
3.3350	3.3400	4.22083E-13
3.3400	3.3450	2.25680E-09
3.3450	3.3500	3.01826E-11
3.3500	3.3550	2.31243E-09
3.3550	3.3600	5.19078E-11
3.3600	3.3650	2.22435E-09
3.3650	3.3700	2.26148E-09
3.3700	3.3750	3.08096E-11
3.3750	3.3800	4.12734E-11
3.3800	3.3850	8.87900E-12
3.3850	3.3900	4.30927E-11
3.3900	3.3950	4.07856E-11
3.3950	3.4000	2.56530E-11
3.4000	3.4050	2.72676E-11
3.4050	3.4100	2.23831E-09
3.4100	3.4150	2.24443E-09
3.4150	3.4200	2.21193E-09
3.4200	3.4250	1.76059E-12
3.4250	3.4300	3.98898E-11
3.4300	3.4350	1.29930E-11
3.4350	3.4400	2.28476E-09
3.4400	3.4450	3.18958E-11
3.4450	3.4500	5.86173E-11
3.4500	3.4550	7.59090E-12
3.4550	3.4600	2.23609E-09
3.4600	3.4650	1.86394E-11
3.4650	3.4700	2.23493E-09
3.4700	3.4750	5.54030E-11
3.4750	3.4800	5.86172E-11
3.4800	3.4850	2.24928E-09
3.4850	3.4900	8.60900E-11
3.4900	3.4950	6.73610E-11
3.4950	3.5000	2.30576E-09
3.5000	3.5050	8.63340E-11
3.5050	3.5100	1.63671E-10
3.5100	3.5150	2.36774E-09
3.5150	3.5200	1.71779E-10
3.5200	3.5250	1.77973E-10
3.5250	3.5300	2.01708E-10
3.5300	3.5350	2.80455E-10
3.5350	3.5400	3.36348E-10
3.5400	3.5450	2.58507E-09
3.5450	3.5500	4.78161E-10
3.5500	3.5550	2.77927E-09
3.5550	3.5600	6.53198E-10
3.5600	3.5650	2.97771E-09
3.5650	3.5700	9.13523E-10
3.5700	3.5750	3.29333E-09
3.5750	3.5800	1.26589E-09
3.5800	3.5850	1.47128E-09
3.5850	3.5900	6.08095E-09
3.5900	3.5950	1.85048E-09
3.5950	3.6000	2.12405E-09
3.6000	3.6050	2.33434E-09
3.6050	3.6100	2.65273E-09
3.6100	3.6150	5.18983E-09
3.6150	3.6200	3.21421E-09
3.6200	3.6250	3.52737E-09
3.6250	3.6300	6.06701E-09
3.6300	3.6350	4.11405E-09
3.6350	3.6400	4.42078E-09
3.6400	3.6450	4.70909E-09
3.6450	3.6500	4.99018E-09
3.6500	3.6550	5.30661E-09
3.6550	3.6600	5.52240E-09
3.6600	3.6650	5.72064E-09
3.6650	3.6700	1.03400E-08
3.6700	3.6750	5.98725E-09
3.6750	3.6800	6.32747E-09
3.6800	3.6850	8.39552E-09
3.6850	3.6900	8.47616E-09
3.6900	3.6950	6.20012E-09
3.6950	3.7000	1.05592E-08
3.7000	3.7050	6.01918E-09
3.7050	3.7100	5.77642E-09
3.7100	3.7150	5.67014E-09
3.7150	3.7200	5.44037E-09
3.7200	3.7250	5.11054E-09
3.7250	3.7300	4.83618E-09
3.7300	3.7350	7.06519E-09
3.7350	3.7400	4.27248E-09
3.7400	3.7450	3.87311E-09
3.7450	3.7500	3.58358E-09
3.7500	3.7550	3.32197E-09
3.7550	3.7600	2.91831E-09
3.7600	3.7650	2.70912E-09
3.7650	3.7700	2.45264E-09
3.7700	3.7750	2.15876E-09
3.7750	3.7800	1.86972E-09
3.7800	3.7850	1.63047E-09
3.7850	3.7900	1.43768E-09
3.7900	3.7950	1.20851E-09
3.7950	3.8000	1.01383E-09
3.8000	3.8050	3.06335E-09
3.8050	3.8100	2.96677E-09
3.8100	3.8150	6.02132E-10
3.8150	3.8200	5.13511E-10
3.8200	3.8250	4.25839E-10
3.8250	3.8300	3.26870E-10
3.8300	3.8350	3.68169E-10
3.8350	3.8400	2.56665E-10
3.8400	3.8450	2.39175E-09
3.8450	3.8500	1.82346E-10
3.8500	3.8550	1.16344E-10
3.8550	3.8600	9.41035E-11
3.8600	3.8650	1.19631E-10
3.8650	3.8700	2.27007E-09
3.8700	3.8750	3.86917E-11
3.8750	3.8800	6.26825E-11
3.8800	3.8850	3.92756E-11
3.8850	3.8900	6.48395E-11
3.8900	3.8950	3.69333E-11
3.8950	3.9000	5.02352E-11
3.9000	3.9050	1.80676E-11
3.9050	3.9100	3.60141E-11
3.9100	3.9150	3.17825E-11
3.9150	3.9200	1.91129E-11
3.9200	3.9250	1.12678E-11
3.9250	3.9300	2.23429E-09
3.9300	3.9350	1.23324E-11
3.9350	3.9400	2.21518E-11
3.9400	3.9450	1.68861E-11
3.9450	3.9500	8.98423E-12
3.9500	3.9550	3.42626E-11
3.9550	3.9600	8.36524E-13
3.9600	3.9650	1.71125E-11
3.9650	3.9700	1.16011E-11
3.9700	3.9750	1.67220E-12
3.9750	3.9800	4.14555E-13
3.9800	3.9850	1.05801E-11
3.9850	3.9900	1.01408E-12
3.9900	3.9950	8.33205E-13
3.9950	4.0000	4.42191E-09
***
0	0.0050	2.34859E-05
0.0050	0.0100	3.11382E-05
0.0100	0.0150	2.13435E-05
0.0150	0.0200	1.29622E-05
0.0200	0.0250	8.10533E-06
0.0250	0.0300	5.72057E-06
0.0300	0.0350	4.43325E-06
0.0350	0.0400	3.59329E-06
0.0400	0.0450	3.00482E-06
0.0450	0.0500	2.57320E-06
0.0500	0.0550	2.17652E-06
0.0550	0.0600	1.89694E-06
0.0600	0.0650	1.63261E-06
0.0650	0.0700	1.42863E-06
0.0700	0.0750	1.23051E-06
0.0750	0.0800	1.06332E-06
0.0800	0.0850	9.12431E-07
0.0850	0.0900	7.85737E-07
0.0900	0.0950	6.65078E-07
0.0950	0.1000	5.49505E-07
0.1000	0.1050	4.64527E-07
0.1050	0.1100	3.82435E-07
0.1100	0.1150	3.21494E-07
0.1150	0.1200	2.58724E-07
0.1200	0.1250	2.17985E-07
0.1250	0.1300	1.92467E-07
0.1300	0.1350	1.72496E-07
0.1350	0.1400	1.59719E-07
0.1400	0.1450	1.52569E-07
0.1450	0.1500	1.45691E-07
0.1500	0.1550	1.39122E-07
0.1550	0.1600	1.34157E-07
0.1600	0.1650	1.29011E-07
0.1650	0.1700	1.25904E-07
0.1700	0.1750	1.20030E-07
0.1750	0.1800	1.13014E-07
0.1800	0.1850	1.10013E-07
0.1850	0.1900	1.06768E-07
0.1900	0.1950	1.04241E-07
0.1950	0.2000	9.92729E-08
0.2000	0.2050	9.90944E-08
0.2050	0.2100	9.36699E-08
0.2100	0.2150	9.08527E-08
0.2150	0.2200	8.65149E-08
0.2200	0.2250	8.27260E-08
0.2250	0.2300	8.34427E-08
0.2300	0.2350	7.94516E-08
0.2350	0.2400	7.64967E-08
0.2400	0.2450	7.19884E-08
0.2450	0.2500	7.09553E-08
0.2500	0.2550	6.95887E-08
0.2550	0.2600	6.67837E-08
0.2600	0.2650	6.48818E-08
0.2650	0.2700	6.41095E-08
0.2700	0.2750	6.09171E-08
0.2750	0.2800	5.88007E-08
0.2800	0.2850	5.77005E-08
0.2850	0.2900	5.67302E-08
0.2900	0.2950	5.60618E-08
0.2950	0.3000	5.28587E-08
0.3000	0.3050	5.08153E-08
0.3050	0.3100	4.99507E-08
0.3100	0.3150	4.85794E-08
0.3150	0.3200	4.83568E-08
0.3200	0.3250	4.42829E-08
0.3250	0.3300	4.49605E-08
0.3300	0.3350	4.25890E-08
0.3350	0.3400	4.20493E-08
0.3400	0.3450	4.00554E-08
0.3450	0.3500	4.04399E-08
0.3500	0.3550	3.71870E-08
0.3550	0.3600	3.72309E-08
0.3600	0.3650	3.56234E-08
0.3650	0.3700	3.39560E-08
0.3700	0.3750	3.22129E-08
0.3750	0.3800	3.23497E-08
0.3800	0.3850	3.13195E-08
0.3850	0.3900	2.93474E-08
0.3900	0.3950	2.96895E-08
0.3950	0.4000	2.79146E-08
0.4000	0.4050	2.65902E-08
0.4050	0.4100	2.66050E-08
0.4100	0.4150	2.65121E-08
0.4150	0.4200	2.38998E-08
0.4200	0.4250	2.36939E-08
0.4250	0.4300	2.27340E-08
0.4300	0.4350	2.22083E-08
0.4350	0.4400	2.13549E-08
0.4400	0.4450	1.94192E-08
0.4450	0.4500	1.88315E-08
0.4500	0.4550	1.79920E-08
0.4550	0.4600	1.71880E-08
0.4600	0.4650	1.61454E-08
0.4650	0.4700	1.54055E-08
0.4700	0.4750	1.51690E-08
0.4750	0.4800	1.45583E-08
0.4800	0.4850	1.35751E-08
0.4850	0.4900	1.33821E-08
0.4900	0.4950	1.35157E-08
0.4950	0.5000	1.28930E-08
0.5000	0.5050	1.15718E-08
0.5050	0.5100	1.19726E-08
0.5100	0.5150	1.18252E-08
0.5150	0.5200	1.14887E-08
0.5200	0.5250	1.08033E-08
0.5250	0.5300	1.05330E-08
0.5300	0.5350	1.04800E-08
0.5350	0.5400	1.02317E-08
0.5400	0.5450	1.05844E-08
0.5450	0.5500	1.05605E-08
0.5500	0.5550	1.04900E-08
0.5550	0.5600	1.04905E-08
0.5600	0.5650	1.07949E-08
0.5650	0.5700	1.10449E-08
0.5700	0.5750	1.08811E-08
0.5750	0.5800	1.13275E-08
0.5800	0.5850	1.12711E-08
0.5850	0.5900	1.15148E-08
0.5900	0.5950	1.16373E-08
0.5950	0.6000	1.18094E-08
0.6000	0.6050	1.16203E-08
0.6050	0.6100	1.17704E-08
0.6100	0.6150	1.18973E-08
0.6150	0.6200	1.19099E-08
0.6200	0.6250	1.18766E-08
0.6250	0.6300	1.17328E-08
0.6300	0.6350	1.14054E-08
0.6350	0.6400	1.10002E-08
0.6400	0.6450	1.08188E-08
0.6450	0.6500	1.07674E-08
0.6500	0.6550	1.11952E-08
0.6550	0.6600	1.13034E-08
0.6600	0.6650	1.17029E-08
0.6650	0.6700	1.22512E-08
0.6700	0.6750	1.26410E-08
0.6750	0.6800	1.26773E-08
0.6800	0.6850	1.30891E-08
0.6850	0.6900	1.36225E-08
0.6900	0.6950	1.43992E-08
0.6950	0.7000	1.50623E-08
0.7000	0.7050	1.65629E-08
0.7050	0.7100	1.71615E-08
0.7100	0.7150	1.78223E-08
0.7150	0.7200	1.86879E-08
0.7200	0.7250	1.94214E-08
0.7250	0.7300	2.03473E-08
0.7300	0.7350	2.09932E-08
0.7350	0.7400	2.22358E-08
0.7400	0.7450	2.38613E-08
0.7450	0.7500	2.62311E-08
0.7500	0.7550	3.12181E-08
0.7550	0.7600	3.97777E-08
0.7600	0.7650	5.31346E-08
0.7650	0.7700	7.34269E-08
0.7700	0.7750	9.60151E-08
0.7750	0.7800	1.13728E-07
0.7800	0.7850	1.17462E-07
0.7850	0.7900	1.07846E-07
0.7900	0.7950	8.66789E-08
0.7950	0.8000	6.07716E-08
0.8000	0.8050	4.15153E-08
0.8050	0.8100	2.75973E-08
0.8100	0.8150	1.93700E-08
0.8150	0.8200	1.45063E-08
0.8200	0.8250	1.15776E-08
0.8250	0.8300	1.01144E-08
0.8300	0.8350	8.72231E-09
0.8350	0.8400	7.62000E-09
0.8400	0.8450	6.97089E-09
0.8450	0.8500	6.26721E-09
0.8500	0.8550	5.50559E-09
0.8550	0.8600	5.07974E-09
0.8600	0.8650	4.82636E-09
0.8650	0.8700	4.46249E-09
0.8700	0.8750	4.14133E-09
0.8750	0.8800	3.76240E-09
0.8800	0.8850	3.47061E-09
0.8850	0.8900	3.33079E-09
0.8900	0.8950	3.12448E-09
0.8950	0.9000	2.98970E-09
0.9000	0.9050	3.05294E-09
0.9050	0.9100	3.01033E-09
0.9100	0.9150	2.91394E-09
0.9150	0.9200	2.80636E-09
0.9200	0.9250	2.68165E-09
0.9250	0.9300	2.58554E-09
0.9300	0.9350	2.52017E-09
0.9350	0.9400	2.41693E-09
0.9400	0.9450	2.40536E-09
0.9450	0.9500	2.38845E-09
0.9500	0.9550	2.13088E-09
0.9550	0.9600	2.18742E-09
0.9600	0.9650	2.24392E-09
0.9650	0.9700	2.39870E-09
0.9700	0.9750	2.80483E-09
0.9750	0.9800	3.32595E-09
0.9800	0.9850	4.82793E-09
0.9850	0.9900	7.52033E-09
0.9900	0.9950	1.21867E-08
0.9950	1.0000	1.97417E-08
1.0000	1.0050	2.98268E-08
1.0050	1.0100	4.09999E-08
1.0100	1.0150	5.07281E-08
1.0150	1.0200	5.61279E-08
1.0200	1.0250	5.42270E-08
1.0250	1.0300	4.73110E-08
1.0300	1.0350	3.65394E-08
1.0350	1.0400	2.53396E-08
1.0400	1.0450	1.60791E-08
1.0450	1.0500	9.74686E-09
1.0500	1.0550	5.26115E-09
1.0550	1.0600	3.23228E-09
1.0600	1.0650	2.06297E-09
1.0650	1.0700	1.58412E-09
1.0700	1.0750	1.37185E-09
1.0750	1.0800	1.77014E-09
1.0800	1.0850	1.65171E-09
1.0850	1.0900	1.58810E-09
1.0900	1.0950	1.55640E-09
1.0950	1.1000	1.50350E-09
1.1000	1.1050	1.19868E-09
1.1050	1.1100	1.17694E-09
1.1100	1.1150	1.12998E-09
1.1150	1.1200	1.09224E-09
1.1200	1.1250	1.09756E-09
1.1250	1.1300	1.15288E-09
1.1300	1.1350	1.15010E-09
1.1350	1.1400	1.10672E-09
1.1400	1.1450	1.11677E-09
1.1450	1.1500	1.08432E-09
1.1500	1.1550	8.36058E-10
1.1550	1.1600	8.22031E-10
1.1600	1.1650	7.97222E-10
1.1650	1.1700	8.01843E-10
1.1700	1.1750	7.92640E-10
1.1750	1.1800	8.50948E-10
1.1800	1.1850	8.57947E-10
1.1850	1.1900	8.56322E-10
1.1900	1.1950	8.29975E-10
1.1950	1.2000	8.41341E-10
1.2000	1.2050	8.69999E-10
1.2050	1.2100	8.71461E-10
1.2100	1.2150	8.70671E-10
1.2150	1.2200	8.44416E-10
1.2200	1.2250	8.35709E-10
1.2250	1.2300	5.06630E-10
1.2300	1.2350	4.93739E-10
1.2350	1.2400	4.97824E-10
1.2400	1.2450	5.02640E-10
1.2450	1.2500	4.92340E-10
1.2500	1.2550	6.23040E-10
1.2550	1.2600	6.04544E-10
1.2600	1.2650	6.04946E-10
1.2650	1.2700	6.16907E-10
1.2700	1.2750	6.11124E-10
1.2750	1.2800	5.60215E-10
1.2800	1.2850	5.56249E-10
1.2850	1.2900	5.59930E-10
1.2900	1.2950	5.59521E-10
1.2950	1.3000	5.55086E-10
1.3000	1.3050	5.38644E-10
1.3050	1.3100	5.49214E-10
1.3100	1.3150	5.50390E-10
1.3150	1.3200	5.46174E-10
1.3200	1.3250	5.41300E-10
1.3250	1.3300	4.94661E-10
1.3300	1.3350	4.82902E-10
1.3350	1.3400	4.87701E-10
1.3400	1.3450	5.09265E-10
1.3450	1.3500	4.94776E-10
1.3500	1.3550	6.14547E-10
1.3550	1.3600	6.14305E-10
1.3600	1.3650	6.16414E-10
1.3650	1.3700	6.16884E-10
1.3700	1.3750	6.06080E-10
1.3750	1.3800	5.15824E-10
1.3800	1.3850	5.31327E-10
1.3850	1.3900	5.29808E-10
1.3900	1.3950	5.19820E-10
1.3950	1.4000	5.23093E-10
1.4000	1.4050	6.43055E-10
1.4050	1.4100	6.47708E-10
1.4100	1.4150	6.46227E-10
1.4150	1.4200	6.40002E-10
1.4200	1.4250	6.39938E-10
1.4250	1.4300	4.26645E-10
1.4300	1.4350	4.19542E-10
1.4350	1.4400	4.24519E-10
1.4400	1.4450	4.20760E-10
1.4450	1.4500	4.18769E-10
1.4500	1.4550	5.10124E-10
1.4550	1.4600	5.11486E-10
1.4600	1.4650	5.15099E-10
1.4650	1.4700	5.04765E-10
1.4700	1.4750	4.99579E-10
1.4750	1.4800	3.79103E-10
1.4800	1.4850	3.65729E-10
1.4850	1.4900	3.73745E-10
1.4900	1.4950	3.76338E-10
1.4950	1.5000	3.71583E-10
1.5000	1.5050	3.23858E-10
1.5050	1.5100	3.23641E-10
1.5100	1.5150	3.19527E-10
1.5150	1.5200	3.33061E-10
1.5200	1.5250	3.20088E-10
1.5250	1.5300	5.33169E-10
1.5300	1.5350	5.46706E-10
1.5350	1.5400	5.44424E-10
1.5400	1.5450	5.35094E-10
1.5450	1.5500	5.36645E-10
1.5500	1.5550	6.22020E-10
1.5550	1.5600	6.28399E-10
1.5600	1.5650	6.22240E-10
1.5650	1.5700	6.29108E-10
1.5700	1.5750	6.26084E-10
1.5750	1.5800	5.32137E-10
1.5800	1.5850	5.34147E-10
1.5850	1.5900	5.30526E-10
1.5900	1.5950	5.32813E-10
1.5950	1.6000	5.42535E-10
1.6000	1.6050	3.18864E-10
1.6050	1.6100	3.16476E-10
1.6100	1.6150	3.17636E-10
1.6150	1.6200	3.15068E-10
1.6200	1.6250	3.15375E-10
1.6250	1.6300	3.16727E-10
1.6300	1.6350	3.18846E-10
1.6350	1.6400	3.11729E-10
1.6400	1.6450	3.13097E-10
1.6450	1.6500	3.15207E-10
1.6500	1.6550	4.42993E-10
1.6550	1.6600	4.45624E-10
1.6600	1.6650	4.46051E-10
1.6650	1.6700	4.40471E-10
1.6700	1.6750	4.45298E-10
1.6750	1.6800	4.01269E-10
1.6800	1.6850	4.05534E-10
1.6850	1.6900	3.98913E-10
1.6900	1.6950	3.97859E-10
1.6950	1.7000	4.01411E-10
1.7000	1.7050	3.55652E-10
1.7050	1.7100	3.58057E-10
1.7100	1.7150	3.53098E-10
1.7150	1.7200	3.58923E-10
1.7200	1.7250	3.54692E-10
1.7250	1.7300	3.94492E-10
1.7300	1.7350	3.99043E-10
1.7350	1.7400	3.99599E-10
1.7400	1.7450	3.95814E-10
1.7450	1.7500	3.97897E-10
1.7500	1.7550	3.09191E-10
1.7550	1.7600	3.13149E-10
1.7600	1.7650	3.09108E-10
1.7650	1.7700	3.08869E-10
1.7700	1.7750	3.11794E-10
1.7750	1.7800	1.39207E-10
1.7800	1.7850	1.37397E-10
1.7850	1.7900	1.45550E-10
1.7900	1.7950	1.35060E-10
1.7950	1.8000	1.35595E-10
1.8000	1.8050	3.93760E-10
1.8050	1.8100	3.94095E-10
1.8100	1.8150	3.94286E-10
1.8150	1.8200	3.94024E-10
1.8200	1.8250	3.95163E-10
1.8250	1.8300	3.52319E-10
1.8300	1.8350	3.52204E-10
1.8350	1.8400	3.52223E-10
1.8400	1.8450	3.49573E-10
1.8450	1.8500	3.54543E-10
1.8500	1.8550	3.05979E-10
1.8550	1.8600	3.07609E-10
1.8600	1.8650	3.05133E-10
1.8650	1.8700	3.08745E-10
1.8700	1.8750	3.10537E-10
1.8750	1.8800	4.40188E-10
1.8800	1.8850	4.37883E-10
1.8850	1.8900	4.37530E-10
1.8900	1.8950	4.36123E-10
1.8950	1.9000	4.35299E-10
1.9000	1.9050	2.68390E-10
1.9050	1.9100	2.62756E-10
1.9100	1.9150	2.63559E-10
1.9150	1.9200	2.63184E-10
1.9200	1.9250	2.68794E-10
1.9250	1.9300	3.16345E-10
1.9300	1.9350	3.07550E-10
1.9350	1.9400	3.06211E-10
1.9400	1.9450	3.07308E-10
1.9450	1.9500	3.14722E-10
1.9500	1.9550	5.66600E-10
1.9550	1.9600	5.63325E-10
1.9600	1.9650	5.62436E-10
1.9650	1.9700	5.65330E-10
1.9700	1.9750	5.64544E-10
1.9750	1.9800	2.18458E-10
1.9800	1.9850	2.20185E-10
1.9850	1.9900	2.22236E-10
1.9900	1.9950	2.19623E-10
1.9950	2.0000	2.20205E-10
2.0000	2.0050	2.21613E-10
2.0050	2.0100	2.20333E-10
2.0100	2.0150	2.16582E-10
2.0150	2.0200	2.22221E-10
2.0200	2.0250	2.21678E-10
2.0250	2.0300	1.31293E-10
2.0300	2.0350	1.33860E-10
2.0350	2.0400	1.34116E-10
2.0400	2.0450	1.30280E-10
2.0450	2.0500	1.34382E-10
2.0500	2.0550	2.63403E-10
2.0550	2.0600	2.60948E-10
2.0600	2.0650	2.61799E-10
2.0650	2.0700	2.62541E-10
2.0700	2.0750	2.61091E-10
2.0750	2.0800	3.06410E-10
2.0800	2.0850	3.04840E-10
2.0850	2.0900	3.03219E-10
2.0900	2.0950	3.04406E-10
2.0950	2.1000	3.04894E-10
2.1000	2.1050	9.20991E-11
2.1050	2.1100	8.86790E-11
2.1100	2.1150	9.05688E-11
2.1150	2.1200	8.96083E-11
2.1200	2.1250	9.12136E-11
2.1250	2.1300	2.20130E-10
2.1300	2.1350	2.18461E-10
2.1350	2.1400	2.18043E-10
2.1400	2.1450	2.17598E-10
2.1450	2.1500	2.19680E-10
2.1500	2.1550	3.90719E-10
2.1550	2.1600	3.91963E-10
2.1600	2.1650	3.91068E-10
2.1650	2.1700	3.89696E-10
2.1700	2.1750	3.91877E-10
2.1750	2.1800	1.34249E-10
2.1800	2.1850	1.33717E-10
2.1850	2.1900	1.38530E-10
2.1900	2.1950	1.30377E-10
2.1950	2.2000	1.33775E-10
2.2000	2.2050	2.62903E-10
2.2050	2.2100	2.60863E-10
2.2100	2.2150	2.61037E-10
2.2150	2.2200	2.63432E-10
2.2200	2.2250	2.62267E-10
2.2250	2.2300	9.03505E-11
2.2300	2.2350	9.02474E-11
2.2350	2.2400	8.87303E-11
2.2400	2.2450	8.93799E-11
2.2450	2.2500	8.82350E-11
2.2500	2.2550	4.47131E-11
2.2550	2.2600	4.64903E-11
2.2600	2.2650	4.41097E-11
2.2650	2.2700	4.48282E-11
2.2700	2.2750	4.48320E-11
2.2750	2.2800	3.05355E-10
2.2800	2.2850	3.04985E-10
2.2850	2.2900	3.02744E-10
2.2900	2.2950	3.12671E-10
2.2950	2.3000	3.04199E-10
2.3000	2.3050	4.31202E-10
2.3050	2.3100	4.34228E-10
2.3100	2.3150	4.32203E-10
2.3150	2.3200	4.33957E-10
2.3200	2.3250	4.32008E-10
2.3250	2.3300	2.18330E-10
2.3300	2.3350	2.16934E-10
2.3350	2.3400	2.18213E-10
2.3400	2.3450	2.17999E-10
2.3450	2.3500	2.19227E-10
2.3500	2.3550	8.91120E-11
2.3550	2.3600	8.93456E-11
2.3600	2.3650	8.87469E-11
2.3650	2.3700	8.75106E-11
2.3700	2.3750	8.72379E-11
2.3750	2.3800	4.38356E-11
2.3800	2.3850	4.62726E-11
2.3850	2.3900	4.55200E-11
2.3900	2.3950	4.75826E-11
2.3950	2.4000	4.39176E-11
2.4000	2.4050	1.73250E-10
2.4050	2.4100	1.73676E-10
2.4100	2.4150	1.74411E-10
2.4150	2.4200	1.72755E-10
2.4200	2.4250	1.75866E-10
2.4250	2.4300	2.16895E-10
2.4300	2.4350	2.17874E-10
2.4350	2.4400	2.16466E-10
2.4400	2.4450	2.15791E-10
2.4450	2.4500	2.16823E-10
2.4500	2.4550	1.43518E-12
2.4550	2.4600	2.82037E-12
2.4600	2.4650	1.36113E-12
2.4650	2.4700	2.17561E-12
2.4700	2.4750	4.13338E-12
2.4750	2.4800	3.03082E-10
2.4800	2.4850	3.03978E-10
2.4850	2.4900	3.04119E-10
2.4900	2.4950	3.01736E-10
2.4950	2.5000	3.02310E-10
2.5000	2.5050	9.27665E-11
2.5050	2.5100	9.02028E-11
2.5100	2.5150	8.75003E-11
2.5150	2.5200	8.80138E-11
2.5200	2.5250	8.76430E-11
2.5250	2.5300	8.95711E-11
2.5300	2.5350	8.80454E-11
2.5350	2.5400	8.75647E-11
2.5400	2.5450	8.81379E-11
2.5450	2.5500	8.70588E-11
2.5500	2.5550	1.73939E-10
2.5550	2.5600	1.72966E-10
2.5600	2.5650	1.72163E-10
2.5650	2.5700	1.73961E-10
2.5700	2.5750	1.73003E-10
2.5750	2.5800	1.73221E-10
2.5800	2.5850	1.73590E-10
2.5850	2.5900	1.73998E-10
2.5900	2.5950	1.74448E-10
2.5950	2.6000	1.73976E-10
2.6000	2.6050	4.45815E-11
2.6050	2.6100	4.52239E-11
2.6100	2.6150	4.56106E-11
2.6150	2.6200	4.62602E-11
2.6200	2.6250	4.55015E-11
2.6250	2.6300	1.31406E-10
2.6300	2.6350	1.30883E-10
2.6350	2.6400	1.30061E-10
2.6400	2.6450	1.29359E-10
2.6450	2.6500	1.31107E-10
2.6500	2.6550	1.31241E-10
2.6550	2.6600	1.30843E-10
2.6600	2.6650	1.30623E-10
2.6650	2.6700	1.32885E-10
2.6700	2.6750	1.30008E-10
2.6750	2.6800	8.75839E-11
2.6800	2.6850	8.98221E-11
2.6850	2.6900	8.82953E-11
2.6900	2.6950	8.88968E-11
2.6950	2.7000	8.75829E-11
2.7000	2.7050	4.49537E-11
2.7050	2.7100	4.50488E-11
2.7100	2.7150	4.44743E-11
2.7150	2.7200	4.38636E-11
2.7200	2.7250	4.34309E-11
2.7250	2.7300	8.93468E-11
2.7300	2.7350	8.85005E-11
2.7350	2.7400	8.85289E-11
2.7400	2.7450	8.78003E-11
2.7450	2.7500	8.72373E-11
2.7500	2.7550	1.30552E-10
2.7550	2.7600	1.31355E-10
2.7600	2.7650	1.29122E-10
2.7650	2.7700	1.31541E-10
2.7700	2.7750	1.31346E-10
2.7750	2.7800	1.73245E-10
2.7800	2.7850	1.75478E-10
2.7850	2.7900	1.74475E-10
2.7900	2.7950	1.74989E-10
2.7950	2.8000	1.74641E-10
2.8000	2.8050	1.59714E-12
2.8050	2.8100	2.32827E-12
2.8100	2.8150	1.30373E-12
2.8150	2.8200	1.48653E-12
2.8200	2.8250	4.01609E-12
2.8250	2.8300	1.30275E-10
2.8300	2.8350	1.30865E-10
2.8350	2.8400	1.31417E-10
2.8400	2.8450	1.31756E-10
2.8450	2.8500	1.32447E-10
2.8500	2.8550	2.91840E-12
2.8550	2.8600	1.97214E-12
2.8600	2.8650	2.95287E-12
2.8650	2.8700	1.80040E-12
2.8700	2.8750	2.01195E-12
2.8750	2.8800	4.93338E-11
2.8800	2.8850	5.39027E-11
2.8850	2.8900	5.01089E-11
2.8900	2.8950	5.89320E-11
2.8950	2.9000	6.42870E-11
2.9000	2.9050	8.06421E-11
2.9050	2.9100	8.12368E-11
2.9100	2.9150	9.49904E-11
2.9150	2.9200	1.07457E-10
2.9200	2.9250	1.24537E-10
2.9250	2.9300	1.47843E-10
2.9300	2.9350	1.78789E-10
2.9350	2.9400	2.27682E-10
2.9400	2.9450	3.04198E-10
2.9450	2.9500	3.74073E-10
2.9500	2.9550	4.67232E-10
2.9550	2.9600	6.41226E-10
2.9600	2.9650	7.73629E-10
2.9650	2.9700	9.32959E-10
2.9700	2.9750	1.17974E-09
2.9750	2.9800	1.41140E-09
2.9800	2.9850	1.74665E-09
2.9850	2.9900	2.10853E-09
2.9900	2.9950	2.59042E-09
2.9950	3.0000	3.14803E-09
3.0000	3.0050	3.77193E-09
3.0050	3.0100	4.61310E-09
3.0100	3.0150	5.26966E-09
3.0150	3.0200	6.26877E-09
3.0200	3.0250	7.35359E-09
3.0250	3.0300	8.55421E-09
3.0300	3.0350	9.89049E-09
3.0350	3.0400	1.11012E-08
3.0400	3.0450	1.24759E-08
3.0450	3.0500	1.40258E-08
3.0500	3.0550	1.54173E-08
3.0550	3.0600	1.68502E-08
3.0600	3.0650	1.83324E-08
3.0650	3.0700	1.97387E-08
3.0700	3.0750	2.09133E-08
3.0750	3.0800	2.25151E-08
3.0800	3.0850	2.33302E-08
3.0850	3.0900	2.36220E-08
3.0900	3.0950	2.42936E-08
3.0950	3.1000	2.46395E-08
3.1000	3.1050	2.42194E-08
3.1050	3.1100	2.42901E-08
3.1100	3.1150	2.35840E-08
3.1150	3.1200	2.25303E-08
3.1200	3.1250	2.17308E-08
3.1250	3.1300	2.04790E-08
3.1300	3.1350	1.92205E-08
3.1350	3.1400	1.79696E-08
3.1400	3.1450	1.61711E-08
3.1450	3.1500	1.47055E-08
3.1500	3.1550	1.31489E-08
3.1550	3.1600	1.17691E-08
3.1600	3.1650	1.02263E-08
3.1650	3.1700	8.92301E-09
3.1700	3.1750	7.58965E-09
3.1750	3.1800	6.51176E-09
3.1800	3.1850	5.31476E-09
3.1850	3.1900	4.50377E-09
3.1900	3.1950	3.60876E-09
3.1950	3.2000	2.94821E-09
3.2000	3.2050	2.29158E-09
3.2050	3.2100	1.88887E-09
3.2100	3.2150	1.45700E-09
3.2150	3.2200	1.06768E-09
3.2200	3.2250	8.99542E-10
3.2250	3.2300	6.63694E-10
3.2300	3.2350	5.21790E-10
3.2350	3.2400	4.01777E-10
3.2400	3.2450	3.19831E-10
3.2450	3.2500	2.14887E-10
3.2500	3.2550	2.36536E-10
3.2550	3.2600	1.86211E-10
3.2600	3.2650	1.59018E-10
3.2650	3.2700	1.38713E-10
3.2700	3.2750	1.18507E-10
3.2750	3.2800	6.12267E-11
3.2800	3.2850	5.92850E-11
3.2850	3.2900	5.72438E-11
3.2900	3.2950	4.93237E-11
3.2950	3.3000	4.89163E-11
3.3000	3.3050	1.42848E-12
3.3050	3.3100	4.57117E-12
3.3100	3.3150	3.23314E-12
3.3150	3.3200	5.22274E-12
3.3200	3.3250	3.13672E-12
3.3250	3.3300	4.36402E-11
3.3300	3.3350	4.58927E-11
3.3350	3.3400	4.46645E-11
3.3400	3.3450	4.53342E-11
3.3450	3.3500	4.30408E-11
3.3500	3.3550	8.87765E-11
3.3550	3.3600	8.73764E-11
3.3600	3.3650	8.90849E-11
3.3650	3.3700	8.74329E-11
3.3700	3.3750	8.96002E-11
3.3750	3.3800	7.21046E-13
3.3800	3.3850	2.26094E-12
3.3850	3.3900	1.62952E-12
3.3900	3.3950	2.09166E-12
3.3950	3.4000	1.83908E-12
3.4000	3.4050	8.86706E-11
3.4050	3.4100	8.83563E-11
3.4100	3.4150	8.86588E-11
3.4150	3.4200	8.75572E-11
3.4200	3.4250	8.71820E-11
3.4250	3.4300	4.35110E-11
3.4300	3.4350	4.46542E-11
3.4350	3.4400	4.54720E-11
3.4400	3.4450	4.49463E-11
3.4450	3.4500	4.55805E-11
3.4500	3.4550	3.35829E-12
3.4550	3.4600	4.23503E-12
3.4600	3.4650	2.26726E-12
3.4650	3.4700	3.58641E-12
3.4700	3.4750	2.91204E-12
3.4750	3.4800	3.74618E-12
3.4800	3.4850	4.64457E-12
3.4850	3.4900	7.29633E-12
3.4900	3.4950	6.11139E-12
3.4950	3.5000	7.45645E-12
3.5000	3.5050	1.00139E-11
3.5050	3.5100	1.04467E-11
3.5100	3.5150	1.30531E-11
3.5150	3.5200	1.56758E-11
3.5200	3.5250	1.98193E-11
3.5250	3.5300	6.83657E-11
3.5300	3.5350	6.89545E-11
3.5350	3.5400	7.40655E-11
3.5400	3.5450	7.94594E-11
3.5450	3.5500	8.37695E-11
3.5500	3.5550	8.77680E-11
3.5550	3.5600	1.00641E-10
3.5600	3.5650	1.07083E-10
3.5650	3.5700	1.15146E-10
3.5700	3.5750	1.26967E-10
3.5750	3.5800	9.61036E-11
3.5800	3.5850	1.06361E-10
3.5850	3.5900	1.21702E-10
3.5900	3.5950	1.36913E-10
3.5950	3.6000	1.52718E-10
3.6000	3.6050	1.69746E-10
3.6050	3.6100	1.82408E-10
3.6100	3.6150	2.01967E-10
3.6150	3.6200	2.20903E-10
3.6200	3.6250	2.34668E-10
3.6250	3.6300	2.59627E-10
3.6300	3.6350	2.75349E-10
3.6350	3.6400	2.94014E-10
3.6400	3.6450	3.11278E-10
3.6450	3.6500	3.25342E-10
3.6500	3.6550	3.84761E-10
3.6550	3.6600	3.96145E-10
3.6600	3.6650	4.12050E-10
3.6650	3.6700	4.21427E-10
3.6700	3.6750	4.29731E-10
3.6750	3.6800	4.33227E-10
3.6800	3.6850	4.40628E-10
3.6850	3.6900	4.40532E-10
3.6900	3.6950	4.40525E-10
3.6950	3.7000	4.38996E-10
3.7000	3.7050	4.34295E-10
3.7050	3.7100	4.24869E-10
3.7100	3.7150	4.12541E-10
3.7150	3.7200	4.03151E-10
3.7200	3.7250	3.87830E-10
3.7250	3.7300	3.27761E-10
3.7300	3.7350	3.11952E-10
3.7350	3.7400	2.95547E-10
3.7400	3.7450	2.74334E-10
3.7450	3.7500	2.56549E-10
3.7500	3.7550	2.38572E-10
3.7550	3.7600	2.15298E-10
3.7600	3.7650	1.98616E-10
3.7650	3.7700	1.80684E-10
3.7700	3.7750	1.61658E-10
3.7750	3.7800	1.87241E-10
3.7800	3.7850	1.73757E-10
3.7850	3.7900	1.59016E-10
3.7900	3.7950	1.44672E-10
3.7950	3.8000	1.29999E-10
3.8000	3.8050	7.79880E-11
3.8050	3.8100	6.37951E-11
3.8100	3.8150	5.49691E-11
3.8150	3.8200	4.40270E-11
3.8200	3.8250	3.81821E-11
3.8250	3.8300	3.26607E-11
3.8300	3.8350	2.71949E-11
3.8350	3.8400	2.29761E-11
3.8400	3.8450	1.83337E-11
3.8450	3.8500	1.56405E-11
3.8500	3.8550	1.27173E-11
3.8550	3.8600	9.12386E-12
3.8600	3.8650	7.79087E-12
3.8650	3.8700	6.55278E-12
3.8700	3.8750	5.34879E-12
3.8750	3.8800	4.70237E-11
3.8800	3.8850	4.58798E-11
3.8850	3.8900	4.56409E-11
3.8900	3.8950	4.52023E-11
3.8950	3.9000	4.42391E-11
3.9000	3.9050	8.73128E-11
3.9050	3.9100	8.68692E-11
3.9100	3.9150	8.69102E-11
3.9150	3.9200	8.68301E-11
3.9200	3.9250	8.65028E-11
3.9250	3.9300	1.16996E-12
3.9300	3.9350	1.94825E-13
3.9350	3.9400	2.69179E-13
3.9400	3.9450	4.65431E-13
3.9450	3.9500	8.37234E-13
3.9500	3.9550	4.32308E-11
3.9550	3.9600	4.37585E-11
3.9600	3.9650	4.31481E-11
3.9650	3.9700	4.30927E-11
3.9700	3.9750	4.33208E-11
3.9750	3.9800	6.19821E-13
3.9800	3.9850	6.72237E-14
3.9850	3.9900	5.48756E-14
3.9900	3.9950	7.17034E-14
3.9950	4.0000	8.40784E-13
***
0	0.0050	7.34269E-07
0.0050	0.0100	1.07159E-06
0.0100	0.0150	8.11848E-07
0.0150	0.0200	5.36978E-07
0.0200	0.0250	3.46594E-07
0.0250	0.0300	2.35040E-07
0.0300	0.0350	1.74413E-07
0.0350	0.0400	1.38495E-07
0.0400	0.0450	1.14519E-07
0.0450	0.0500	9.71157E-08
0.0500	0.0550	8.22023E-08
0.0550	0.0600	7.13772E-08
0.0600	0.0650	6.16519E-08
0.0650	0.0700	5.33906E-08
0.0700	0.0750	4.60435E-08
0.0750	0.0800	4.01661E-08
0.0800	0.0850	3.50258E-08
0.0850	0.0900	2.95225E-08
0.0900	0.0950	2.50081E-08
0.0950	0.1000	2.12925E-08
0.1000	0.1050	1.75391E-08
0.1050	0.1100	1.48564E-08
0.1100	0.1150	1.22406E-08
0.1150	0.1200	1.01581E-08
0.1200	0.1250	8.43852E-09
0.1250	0.1300	7.35939E-09
0.1300	0.1350	6.56531E-09
0.1350	0.1400	6.32006E-09
0.1400	0.1450	5.98317E-09
0.1450	0.1500	5.68109E-09
0.1500	0.1550	5.36978E-09
0.1550	0.1600	5.19164E-09
0.1600	0.1650	5.02411E-09
0.1650	0.1700	4.78675E-09
0.1700	0.1750	4.62586E-09
0.1750	0.1800	4.45171E-09
0.1800	0.1850	4.36735E-09
0.1850	0.1900	4.13446E-09
0.1900	0.1950	3.97422E-09
0.1950	0.2000	3.87796E-09
0.2000	0.2050	3.73392E-09
0.2050	0.2100	3.51647E-09
0.2100	0.2150	3.48252E-09
0.2150	0.2200	3.30913E-09
0.2200	0.2250	3.28502E-09
0.2250	0.2300	3.12259E-09
0.2300	0.2350	3.14439E-09
0.2350	0.2400	2.92083E-09
0.2400	0.2450	2.87786E-09
0.2450	0.2500	2.70357E-09
0.2500	0.2550	2.69035E-09
0.2550	0.2600	2.60586E-09
0.2600	0.2650	2.48588E-09
0.2650	0.2700	2.45640E-09
0.2700	0.2750	2.42601E-09
0.2750	0.2800	2.29900E-09
0.2800	0.2850	2.25675E-09
0.2850	0.2900	2.20969E-09
0.2900	0.2950	2.18772E-09
0.2950	0.3000	2.09245E-09
0.3000	0.3050	2.03337E-09
0.3050	0.3100	1.98391E-09
0.3100	0.3150	1.88178E-09
0.3150	0.3200	1.83984E-09
0.3200	0.3250	1.83853E-09
0.3250	0.3300	1.74617E-09
0.3300	0.3350	1.67814E-09
0.3350	0.3400	1.63429E-09
0.3400	0.3450	1.58146E-09
0.3450	0.3500	1.55984E-09
0.3500	0.3550	1.52909E-09
0.3550	0.3600	1.50269E-09
0.3600	0.3650	1.48413E-09
0.3650	0.3700	1.39986E-09
0.3700	0.3750	1.32879E-09
0.3750	0.3800	1.33176E-09
0.3800	0.3850	1.22234E-09
0.3850	0.3900	1.20746E-09
0.3900	0.3950	1.15684E-09
0.3950	0.4000	1.09390E-09
0.4000	0.4050	1.12388E-09
0.4050	0.4100	1.05494E-09
0.4100	0.4150	1.00746E-09
0.4150	0.4200	9.52440E-10
0.4200	0.4250	9.47691E-10
0.4250	0.4300	8.70755E-10
0.4300	0.4350	9.06422E-10
0.4350	0.4400	8.56972E-10
0.4400	0.4450	7.95595E-10
0.4450	0.4500	7.97255E-10
0.4500	0.4550	7.57882E-10
0.4550	0.4600	7.22020E-10
0.4600	0.4650	7.14376E-10
0.4650	0.4700	6.59303E-10
0.4700	0.4750	6.69084E-10
0.4750	0.4800	6.00359E-10
0.4800	0.4850	5.86690E-10
0.4850	0.4900	5.79757E-10
0.4900	0.4950	5.51819E-10
0.4950	0.5000	5.18616E-10
0.5000	0.5050	5.05257E-10
0.5050	0.5100	5.08255E-10
0.5100	0.5150	5.00972E-10
0.5150	0.5200	4.73071E-10
0.5200	0.5250	4.86856E-10
0.5250	0.5300	4.45618E-10
0.5300	0.5350	4.43215E-10
0.5350	0.5400	4.33922E-10
0.5400	0.5450	4.44037E-10
0.5450	0.5500	4.48638E-10
0.5500	0.5550	4.77808E-10
0.5550	0.5600	4.84908E-10
0.5600	0.5650	4.93699E-10
0.5650	0.5700	5.01544E-10
0.5700	0.5750	5.03459E-10
0.5750	0.5800	4.98603E-10
0.5800	0.5850	4.98019E-10
0.5850	0.5900	5.15463E-10
0.5900	0.5950	5.09522E-10
0.5950	0.6000	5.31621E-10
0.6000	0.6050	5.37973E-10
0.6050	0.6100	5.54424E-10
0.6100	0.6150	5.43456E-10
0.6150	0.6200	5.53427E-10
0.6200	0.6250	5.53322E-10
0.6250	0.6300	5.29668E-10
0.6300	0.6350	5.10306E-10
0.6350	0.6400	4.97220E-10
0.6400	0.6450	4.84590E-10
0.6450	0.6500	4.92152E-10
0.6500	0.6550	4.85774E-10
0.6550	0.6600	4.95500E-10
0.6600	0.6650	5.22989E-10
0.6650	0.6700	5.37837E-10
0.6700	0.6750	5.66233E-10
0.6750	0.6800	6.04558E-10
0.6800	0.6850	6.31246E-10
0.6850	0.6900	6.60107E-10
0.6900	0.6950	6.92940E-10
0.6950	0.7000	7.28881E-10
0.7000	0.7050	8.09170E-10
0.7050	0.7100	8.42864E-10
0.7100	0.7150	8.93465E-10
0.7150	0.7200	9.41565E-10
0.7200	0.7250	9.68425E-10
0.7250	0.7300	1.00533E-09
0.7300	0.7350	1.05682E-09
0.7350	0.7400	1.13957E-09
0.7400	0.7450	1.23290E-09
0.7450	0.7500	1.41447E-09
0.7500	0.7550	1.72388E-09
0.7550	0.7600	2.17201E-09
0.7600	0.7650	2.88809E-09
0.7650	0.7700	3.79455E-09
0.7700	0.7750	4.70922E-09
0.7750	0.7800	5.50208E-09
0.7800	0.7850	5.67241E-09
0.7850	0.7900	5.27699E-09
0.7900	0.7950	4.43275E-09
0.7950	0.8000	3.31976E-09
0.8000	0.8050	2.38741E-09
0.8050	0.8100	1.62317E-09
0.8100	0.8150	1.12541E-09
0.8150	0.8200	8.21982E-10
0.8200	0.8250	6.49089E-10
0.8250	0.8300	5.11087E-10
0.8300	0.8350	4.41818E-10
0.8350	0.8400	3.81974E-10
0.8400	0.8450	3.34684E-10
0.8450	0.8500	3.04144E-10
0.8500	0.8550	2.83780E-10
0.8550	0.8600	2.51117E-10
0.8600	0.8650	2.25832E-10
0.8650	0.8700	2.06512E-10
0.8700	0.8750	1.93947E-10
0.8750	0.8800	1.78248E-10
0.8800	0.8850	1.68664E-10
0.8850	0.8900	1.52511E-10
0.8900	0.8950	1.45520E-10
0.8950	0.9000	1.34400E-10
0.9000	0.9050	1.24835E-10
0.9050	0.9100	1.16964E-10
0.9100	0.9150	1.09059E-10
0.9150	0.9200	1.00062E-10
0.9200	0.9250	9.39867E-11
0.9250	0.9300	9.48987E-11
0.9300	0.9350	9.03070E-11
0.9350	0.9400	8.55881E-11
0.9400	0.9450	8.35209E-11
0.9450	0.9500	8.25714E-11
0.9500	0.9550	9.89387E-11
0.9550	0.9600	1.02564E-10
0.9600	0.9650	1.09703E-10
0.9650	0.9700	1.27131E-10
0.9700	0.9750	1.61091E-10
0.9750	0.9800	2.06822E-10
0.9800	0.9850	3.12533E-10
0.9850	0.9900	4.88631E-10
0.9900	0.9950	7.64386E-10
0.9950	1.0000	1.13015E-09
1.0000	1.0050	1.58443E-09
1.0050	1.0100	2.06063E-09
1.0100	1.0150	2.43166E-09
1.0150	1.0200	2.63945E-09
1.0200	1.0250	2.59440E-09
1.0250	1.0300	2.31863E-09
1.0300	1.0350	1.88494E-09
1.0350	1.0400	1.40178E-09
1.0400	1.0450	9.64619E-10
1.0450	1.0500	6.11024E-10
1.0500	1.0550	3.71011E-10
1.0550	1.0600	2.23426E-10
1.0600	1.0650	1.37500E-10
1.0650	1.0700	8.92008E-11
1.0700	1.0750	6.72958E-11
1.0750	1.0800	5.56345E-11
1.0800	1.0850	4.82918E-11
1.0850	1.0900	4.28143E-11
1.0900	1.0950	3.81911E-11
1.0950	1.1000	3.71069E-11
1.1000	1.1050	3.90727E-11
1.1050	1.1100	3.76001E-11
1.1100	1.1150	3.68797E-11
1.1150	1.1200	3.50080E-11
1.1200	1.1250	3.25682E-11
1.1250	1.1300	2.73781E-11
1.1300	1.1350	2.76396E-11
1.1350	1.1400	2.77686E-11
1.1400	1.1450	2.52787E-11
1.1450	1.1500	2.51590E-11
1.1500	1.1550	1.93207E-11
1.1550	1.1600	1.92049E-11
1.1600	1.1650	1.83913E-11
1.1650	1.1700	1.88305E-11
1.1700	1.1750	1.77334E-11
1.1750	1.1800	3.89845E-11
1.1800	1.1850	3.97178E-11
1.1850	1.1900	3.89490E-11
1.1900	1.1950	3.86152E-11
1.1950	1.2000	3.75480E-11
1.2000	1.2050	1.58919E-11
1.2050	1.2100	1.59754E-11
1.2100	1.2150	1.58042E-11
1.2150	1.2200	1.49225E-11
1.2200	1.2250	1.46168E-11
1.2250	1.2300	2.72966E-11
1.2300	1.2350	2.73410E-11
1.2350	1.2400	2.72721E-11
1.2400	1.2450	2.69900E-11
1.2450	1.2500	2.71398E-11
1.2500	1.2550	4.01173E-11
1.2550	1.2600	3.99171E-11
1.2600	1.2650	4.03648E-11
1.2650	1.2700	4.01981E-11
1.2700	1.2750	3.97970E-11
1.2750	1.2800	2.19105E-11
1.2800	1.2850	2.22117E-11
1.2850	1.2900	2.16056E-11
1.2900	1.2950	2.15687E-11
1.2950	1.3000	2.15571E-11
1.3000	1.3050	1.70984E-11
1.3050	1.3100	1.67509E-11
1.3100	1.3150	1.67389E-11
1.3150	1.3200	1.65156E-11
1.3200	1.3250	1.68896E-11
1.3250	1.3300	7.38468E-12
1.3300	1.3350	7.39761E-12
1.3350	1.3400	7.26294E-12
1.3400	1.3450	7.45128E-12
1.3450	1.3500	7.22198E-12
1.3500	1.3550	3.07000E-12
1.3550	1.3600	2.31566E-12
1.3600	1.3650	2.59096E-12
1.3650	1.3700	3.15852E-12
1.3700	1.3750	2.05424E-12
1.3750	1.3800	2.03370E-11
1.3800	1.3850	1.99426E-11
1.3850	1.3900	1.98648E-11
1.3900	1.3950	1.98344E-11
1.3950	1.4000	1.99751E-11
1.4000	1.4050	1.10143E-11
1.4050	1.4100	1.05970E-11
1.4100	1.4150	1.10503E-11
1.4150	1.4200	1.08517E-11
1.4200	1.4250	1.09128E-11
1.4250	1.4300	1.52315E-11
1.4300	1.4350	1.48501E-11
1.4350	1.4400	1.50448E-11
1.4400	1.4450	1.49557E-11
1.4450	1.4500	1.48135E-11
1.4500	1.4550	2.81866E-11
1.4550	1.4600	2.82645E-11
1.4600	1.4650	2.85948E-11
1.4650	1.4700	2.79940E-11
1.4700	1.4750	2.79568E-11
1.4750	1.4800	1.01749E-11
1.4800	1.4850	1.01084E-11
1.4850	1.4900	1.02412E-11
1.4900	1.4950	1.06847E-11
1.4950	1.5000	1.05649E-11
1.5000	1.5050	1.46420E-11
1.5050	1.5100	1.44058E-11
1.5100	1.5150	1.45983E-11
1.5150	1.5200	1.42280E-11
1.5200	1.5250	1.42815E-11
1.5250	1.5300	1.44572E-11
1.5300	1.5350	1.45517E-11
1.5350	1.5400	1.43937E-11
1.5400	1.5450	1.40907E-11
1.5450	1.5500	1.40784E-11
1.5500	1.5550	5.46598E-12
1.5550	1.5600	5.26264E-12
1.5600	1.5650	5.49137E-12
1.5650	1.5700	5.28360E-12
1.5700	1.5750	5.27206E-12
1.5750	1.5800	5.17972E-12
1.5800	1.5850	5.10963E-12
1.5850	1.5900	5.45425E-12
1.5900	1.5950	5.29515E-12
1.5950	1.6000	5.18975E-12
1.6000	1.6050	7.97549E-13
1.6050	1.6100	8.79235E-13
1.6100	1.6150	6.04053E-13
1.6150	1.6200	6.52299E-13
1.6200	1.6250	8.66007E-13
1.6250	1.6300	1.40339E-11
1.6300	1.6350	1.38163E-11
1.6350	1.6400	1.40056E-11
1.6400	1.6450	1.38461E-11
1.6450	1.6500	1.39620E-11
1.6500	1.6550	8.59562E-13
1.6550	1.6600	6.74810E-13
1.6600	1.6650	4.55103E-13
1.6650	1.6700	6.14987E-13
1.6700	1.6750	4.47005E-13
1.6750	1.6800	1.40138E-11
1.6800	1.6850	1.37634E-11
1.6850	1.6900	1.38519E-11
1.6900	1.6950	1.37221E-11
1.6950	1.7000	1.38083E-11
1.7000	1.7050	3.10548E-13
1.7050	1.7100	7.28990E-13
1.7100	1.7150	3.18168E-13
1.7150	1.7200	3.91132E-13
1.7200	1.7250	2.96714E-13
1.7250	1.7300	1.82234E-11
1.7300	1.7350	1.82407E-11
1.7350	1.7400	1.83951E-11
1.7400	1.7450	1.81801E-11
1.7450	1.7500	1.82298E-11
1.7500	1.7550	4.74476E-12
1.7550	1.7600	4.94957E-12
1.7600	1.7650	4.91456E-12
1.7650	1.7700	4.85474E-12
1.7700	1.7750	4.83348E-12
1.7750	1.7800	4.89816E-12
1.7800	1.7850	4.77973E-12
1.7850	1.7900	4.80922E-12
1.7900	1.7950	4.90210E-12
1.7950	1.8000	4.75961E-12
1.8000	1.8050	1.82598E-11
1.8050	1.8100	1.81480E-11
1.8100	1.8150	1.80016E-11
1.8150	1.8200	1.81705E-11
1.8200	1.8250	1.81013E-11
1.8250	1.8300	9.15792E-12
1.8300	1.8350	9.14226E-12
1.8350	1.8400	9.21347E-12
1.8400	1.8450	9.15371E-12
1.8450	1.8500	9.32575E-12
1.8500	1.8550	9.32935E-12
1.8550	1.8600	9.20822E-12
1.8600	1.8650	9.16199E-12
1.8650	1.8700	9.23407E-12
1.8700	1.8750	9.06856E-12
1.8750	1.8800	2.83945E-13
1.8800	1.8850	2.33946E-13
1.8850	1.8900	3.32557E-13
1.8900	1.8950	1.88398E-13
1.8950	1.9000	5.47684E-13
1.9000	1.9050	4.83793E-12
1.9050	1.9100	4.68964E-12
1.9100	1.9150	4.82392E-12
1.9150	1.9200	4.62620E-12
1.9200	1.9250	4.54110E-12
1.9250	1.9300	9.37490E-12
1.9300	1.9350	9.13381E-12
1.9350	1.9400	9.15340E-12
1.9400	1.9450	9.18440E-12
1.9450	1.9500	9.05005E-12
1.9500	1.9550	2.68957E-11
1.9550	1.9600	2.69090E-11
1.9600	1.9650	2.69278E-11
1.9650	1.9700	2.69284E-11
1.9700	1.9750	2.68718E-11
1.9750	1.9800	8.97644E-12
1.9800	1.9850	9.03391E-12
1.9850	1.9900	9.13783E-12
1.9900	1.9950	9.13932E-12
1.9950	2.0000	9.12972E-12
2.0000	2.0050	1.79412E-11
2.0050	2.0100	1.79794E-11
2.0100	2.0150	1.80088E-11
2.0150	2.0200	1.80448E-11
2.0200	2.0250	1.80220E-11
2.0250	2.0300	1.35664E-11
2.0300	2.0350	1.35127E-11
2.0350	2.0400	1.34904E-11
2.0400	2.0450	1.34691E-11
2.0450	2.0500	1.34851E-11
2.0500	2.0550	4.52037E-12
2.0550	2.0600	4.62534E-12
2.0600	2.0650	4.56593E-12
2.0650	2.0700	4.66678E-12
2.0700	2.0750	4.54600E-12
2.0750	2.0800	4.55015E-12
2.0800	2.0850	4.66384E-12
2.0850	2.0900	4.58548E-12
2.0900	2.0950	4.61952E-12
2.0950	2.1000	4.50256E-12
2.1000	2.1050	9.06616E-12
2.1050	2.1100	9.00445E-12
2.1100	2.1150	9.14535E-12
2.1150	2.1200	9.00499E-12
2.1200	2.1250	9.05217E-12
2.1250	2.1300	4.59157E-12
2.1300	2.1350	4.63161E-12
2.1350	2.1400	4.82064E-12
2.1400	2.1450	4.58823E-12
2.1450	2.1500	4.58065E-12
2.1500	2.1550	1.79843E-11
2.1550	2.1600	1.78806E-11
2.1600	2.1650	1.79282E-11
2.1650	2.1700	1.80244E-11
2.1700	2.1750	1.78947E-11
2.1750	2.1800	8.96021E-12
2.1800	2.1850	9.08769E-12
2.1850	2.1900	9.02546E-12
2.1900	2.1950	8.97795E-12
2.1950	2.2000	9.08706E-12
2.2000	2.2050	9.02454E-12
2.2050	2.2100	9.03023E-12
2.2100	2.2150	9.07738E-12
2.2150	2.2200	9.03674E-12
2.2200	2.2250	8.97216E-12
2.2250	2.2300	4.57013E-12
2.2300	2.2350	4.46948E-12
2.2350	2.2400	4.57694E-12
2.2400	2.2450	4.53069E-12
2.2450	2.2500	4.60871E-12
2.2500	2.2550	4.53361E-12
2.2550	2.2600	4.52832E-12
2.2600	2.2650	4.52460E-12
2.2650	2.2700	4.74100E-12
2.2700	2.2750	4.53559E-12
2.2750	2.2800	1.43684E-13
2.2800	2.2850	7.16933E-14
2.2850	2.2900	8.34821E-14
2.2900	2.2950	1.18522E-13
2.2950	2.3000	1.14730E-13
2.3000	2.3050	8.99670E-12
2.3050	2.3100	9.06937E-12
2.3100	2.3150	9.03841E-12
2.3150	2.3200	9.02250E-12
2.3200	2.3250	9.05751E-12
2.3250	2.3300	8.95826E-12
2.3300	2.3350	8.96832E-12
2.3350	2.3400	9.01980E-12
2.3400	2.3450	9.01797E-12
2.3450	2.3500	9.09169E-12
2.3500	2.3550	4.55811E-12
2.3550	2.3600	4.54994E-12
2.3600	2.3650	4.49418E-12
2.3650	2.3700	4.50368E-12
2.3700	2.3750	4.56524E-12
2.3750	2.3800	4.53808E-12
2.3800	2.3850	4.57609E-12
2.3850	2.3900	4.49716E-12
2.3900	2.3950	4.51750E-12
2.3950	2.4000	4.49257E-12
2.4000	2.4050	4.59981E-12
2.4050	2.4100	4.53619E-12
2.4100	2.4150	4.58184E-12
2.4150	2.4200	4.52311E-12
2.4200	2.4250	4.49726E-12
2.4250	2.4300	8.93460E-12
2.4300	2.4350	8.97696E-12
2.4350	2.4400	8.96592E-12
2.4400	2.4450	8.95277E-12
2.4450	2.4500	8.98150E-12
2.4500	2.4550	4.74633E-12
2.4550	2.4600	4.50195E-12
2.4600	2.4650	4.48546E-12
2.4650	2.4700	4.50343E-12
2.4700	2.4750	4.53900E-12
2.4750	2.4800	4.55819E-12
2.4800	2.4850	4.54155E-12
2.4850	2.4900	4.48078E-12
2.4900	2.4950	4.52183E-12
2.4950	2.5000	4.46672E-12
2.5000	2.5050	1.35893E-13
2.5050	2.5100	1.74183E-13
2.5100	2.5150	1.55179E-13
2.5150	2.5200	1.71258E-14
2.5200	2.5250	1.03277E-13
2.5250	2.5300	1.04527E-13
2.5300	2.5350	2.58665E-14
2.5350	2.5400	7.67370E-14
2.5400	2.5450	5.21169E-14
2.5450	2.5500	2.88140E-13
2.5500	2.5550	8.93201E-12
2.5550	2.5600	8.97705E-12
2.5600	2.5650	8.98750E-12
2.5650	2.5700	8.93742E-12
2.5700	2.5750	9.14995E-12
2.5750	2.5800	4.47260E-12
2.5800	2.5850	4.47516E-12
2.5850	2.5900	4.64933E-12
2.5900	2.5950	4.47987E-12
2.5950	2.6000	4.49655E-12
2.6000	2.6050	4.47678E-12
2.6050	2.6100	4.51771E-12
2.6100	2.6150	4.58966E-12
2.6150	2.6200	4.57181E-12
2.6200	2.6250	4.50540E-12
2.6250	2.6300	8.90484E-12
2.6300	2.6350	8.99774E-12
2.6350	2.6400	8.94701E-12
2.6400	2.6450	9.01140E-12
2.6450	2.6500	8.95080E-12
2.6500	2.6550	4.49609E-12
2.6550	2.6600	4.51654E-12
2.6600	2.6650	4.45242E-12
2.6650	2.6700	4.50217E-12
2.6700	2.6750	4.51796E-12
2.6750	2.6800	8.97553E-12
2.6800	2.6850	8.98726E-12
2.6850	2.6900	8.95499E-12
2.6900	2.6950	8.93223E-12
2.6950	2.7000	8.90484E-12
2.7000	2.7050	4.47993E-12
2.7050	2.7100	4.56678E-12
2.7100	2.7150	4.50012E-12
2.7150	2.7200	4.60091E-12
2.7200	2.7250	4.50589E-12
2.7250	2.7300	1.34183E-11
2.7300	2.7350	1.34040E-11
2.7350	2.7400	1.34312E-11
2.7400	2.7450	1.34964E-11
2.7450	2.7500	1.34880E-11
2.7500	2.7550	8.94582E-12
2.7550	2.7600	8.94015E-12
2.7600	2.7650	8.92345E-12
2.7650	2.7700	8.94982E-12
2.7700	2.7750	9.22857E-12
2.7750	2.7800	4.49737E-12
2.7800	2.7850	4.53371E-12
2.7850	2.7900	4.59229E-12
2.7900	2.7950	4.48220E-12
2.7950	2.8000	4.56132E-12
2.8000	2.8050	4.54011E-12
2.8050	2.8100	4.57335E-12
2.8100	2.8150	4.64475E-12
2.8150	2.8200	4.68831E-12
2.8200	2.8250	4.56685E-12
2.8250	2.8300	1.34275E-13
2.8300	2.8350	2.04905E-13
2.8350	2.8400	2.18107E-13
2.8400	2.8450	1.32595E-13
2.8450	2.8500	2.51451E-13
2.8500	2.8550	5.37252E-13
2.8550	2.8600	4.91392E-13
2.8600	2.8650	6.11392E-13
2.8650	2.8700	6.80138E-13
2.8700	2.8750	1.35959E-12
2.8750	2.8800	6.24729E-12
2.8800	2.8850	5.73138E-12
2.8850	2.8900	6.84143E-12
2.8900	2.8950	6.85496E-12
2.8950	2.9000	7.10822E-12
2.9000	2.9050	1.24700E-11
2.9050	2.9100	1.40074E-11
2.9100	2.9150	1.55784E-11
2.9150	2.9200	1.67230E-11
2.9200	2.9250	1.97771E-11
2.9250	2.9300	1.53351E-11
2.9300	2.9350	1.73039E-11
2.9350	2.9400	2.12788E-11
2.9400	2.9450	2.54098E-11
2.9450	2.9500	3.21188E-11
2.9500	2.9550	4.04260E-11
2.9550	2.9600	5.10154E-11
2.9600	2.9650	6.02994E-11
2.9650	2.9700	7.53161E-11
2.9700	2.9750	8.96694E-11
2.9750	2.9800	1.07799E-10
2.9800	2.9850	1.33431E-10
2.9850	2.9900	1.53739E-10
2.9900	2.9950	1.85093E-10
2.9950	3.0000	2.17723E-10
3.0000	3.0050	2.61940E-10
3.0050	3.0100	2.96384E-10
3.0100	3.0150	3.45685E-10
3.0150	3.0200	3.94844E-10
3.0200	3.0250	4.55389E-10
3.0250	3.0300	5.01374E-10
3.0300	3.0350	5.69973E-10
3.0350	3.0400	6.32295E-10
3.0400	3.0450	7.01978E-10
3.0450	3.0500	7.67654E-10
3.0500	3.0550	8.51303E-10
3.0550	3.0600	9.13125E-10
3.0600	3.0650	9.93920E-10
3.0650	3.0700	1.04033E-09
3.0700	3.0750	1.07929E-09
3.0750	3.0800	1.16038E-09
3.0800	3.0850	1.19735E-09
3.0850	3.0900	1.23212E-09
3.0900	3.0950	1.25381E-09
3.0950	3.1000	1.27987E-09
3.1000	3.1050	1.28491E-09
3.1050	3.1100	1.27216E-09
3.1100	3.1150	1.24960E-09
3.1150	3.1200	1.23274E-09
3.1200	3.1250	1.18921E-09
3.1250	3.1300	1.13532E-09
3.1300	3.1350	1.07251E-09
3.1350	3.1400	1.00617E-09
3.1400	3.1450	9.41814E-10
3.1450	3.1500	8.65217E-10
3.1500	3.1550	7.91048E-10
3.1550	3.1600	7.20185E-10
3.1600	3.1650	6.49053E-10
3.1650	3.1700	5.68650E-10
3.1700	3.1750	5.11159E-10
3.1750	3.1800	4.43733E-10
3.1800	3.1850	3.92955E-10
3.1850	3.1900	3.29015E-10
3.1900	3.1950	2.82314E-10
3.1950	3.2000	2.19721E-10
3.2000	3.2050	1.98582E-10
3.2050	3.2100	1.62151E-10
3.2100	3.2150	1.35108E-10
3.2150	3.2200	1.06756E-10
3.2200	3.2250	8.34087E-11
3.2250	3.2300	6.46642E-11
3.2300	3.2350	5.17071E-11
3.2350	3.2400	3.59644E-11
3.2400	3.2450	3.04522E-11
3.2450	3.2500	2.36377E-11
3.2500	3.2550	2.00545E-11
3.2550	3.2600	1.71859E-11
3.2600	3.2650	1.35989E-11
3.2650	3.2700	1.18825E-11
3.2700	3.2750	8.72675E-12
3.2750	3.2800	7.84621E-12
3.2800	3.2850	7.26409E-12
3.2850	3.2900	6.32406E-12
3.2900	3.2950	5.69910E-12
3.2950	3.3000	5.31432E-12
3.3000	3.3050	7.12909E-13
3.3050	3.3100	4.67880E-13
3.3100	3.3150	4.53739E-13
3.3150	3.3200	1.24656E-13
3.3200	3.3250	3.62038E-13
3.3250	3.3300	1.01072E-13
3.3300	3.3350	1.36408E-13
3.3350	3.3400	1.00537E-13
3.3400	3.3450	1.33402E-13
3.3450	3.3500	1.27931E-13
3.3500	3.3550	2.40101E-14
3.3550	3.3600	2.05093E-14
3.3600	3.3650	2.47104E-14
3.3650	3.3700	1.08808E-13
3.3700	3.3750	4.65127E-15
3.3750	3.3800	9.47459E-14
3.3800	3.3850	1.16687E-13
3.3850	3.3900	8.48149E-14
3.3900	3.3950	1.08098E-13
3.3950	3.4000	2.12924E-13
3.4000	3.4050	4.55934E-12
3.4050	3.4100	4.49990E-12
3.4100	3.4150	4.55701E-12
3.4150	3.4200	4.59052E-12
3.4200	3.4250	4.58446E-12
3.4250	3.4300	4.55790E-12
3.4300	3.4350	4.60214E-12
3.4350	3.4400	4.54754E-12
3.4400	3.4450	4.68762E-12
3.4450	3.4500	4.62782E-12
3.4500	3.4550	1.34921E-11
3.4550	3.4600	1.36176E-11
3.4600	3.4650	1.35731E-11
3.4650	3.4700	1.37484E-11
3.4700	3.4750	1.36772E-11
3.4750	3.4800	3.79364E-13
3.4800	3.4850	4.98502E-13
3.4850	3.4900	5.13645E-13
3.4900	3.4950	6.37296E-13
3.4950	3.5000	7.38666E-13
3.5000	3.5050	5.29423E-12
3.5050	3.5100	5.45528E-12
3.5100	3.5150	5.59646E-12
3.5150	3.5200	5.87952E-12
3.5200	3.5250	5.97601E-12
3.5250	3.5300	1.91320E-12
3.5300	3.5350	2.09314E-12
3.5350	3.5400	2.40572E-12
3.5400	3.5450	2.82551E-12
3.5450	3.5500	3.24383E-12
3.5500	3.5550	3.71041E-12
3.5550	3.5600	4.11477E-12
3.5600	3.5650	4.58131E-12
3.5650	3.5700	5.38321E-12
3.5700	3.5750	6.05233E-12
3.5750	3.5800	6.74612E-12
3.5800	3.5850	7.57244E-12
3.5850	3.5900	8.16352E-12
3.5900	3.5950	8.96763E-12
3.5950	3.6000	9.91938E-12
3.6000	3.6050	1.07885E-11
3.6050	3.6100	1.17125E-11
3.6100	3.6150	1.29061E-11
3.6150	3.6200	1.35451E-11
3.6200	3.6250	1.47160E-11
3.6250	3.6300	1.99901E-11
3.6300	3.6350	2.10141E-11
3.6350	3.6400	2.20123E-11
3.6400	3.6450	2.32235E-11
3.6450	3.6500	2.45126E-11
3.6500	3.6550	2.06920E-11
3.6550	3.6600	2.13743E-11
3.6600	3.6650	2.19088E-11
3.6650	3.6700	2.24505E-11
3.6700	3.6750	2.30395E-11
3.6750	3.6800	2.38523E-11
3.6800	3.6850	2.40601E-11
3.6850	3.6900	2.41808E-11
3.6900	3.6950	2.40878E-11
3.6950	3.7000	2.39895E-11
3.7000	3.7050	2.37751E-11
3.7050	3.7100	2.32444E-11
3.7100	3.7150	2.29710E-11
3.7150	3.7200	2.22339E-11
3.7200	3.7250	2.20718E-11
3.7250	3.7300	2.07326E-11
3.7300	3.7350	1.99097E-11
3.7350	3.7400	1.90658E-11
3.7400	3.7450	1.79729E-11
3.7450	3.7500	1.70428E-11
3.7500	3.7550	1.60337E-11
3.7550	3.7600	1.47661E-11
3.7600	3.7650	1.36563E-11
3.7650	3.7700	1.25575E-11
3.7700	3.7750	1.15280E-11
3.7750	3.7800	1.06406E-11
3.7800	3.7850	9.42549E-12
3.7850	3.7900	8.66501E-12
3.7900	3.7950	7.68294E-12
3.7950	3.8000	6.91876E-12
3.8000	3.8050	5.91250E-12
3.8050	3.8100	5.52523E-12
3.8100	3.8150	4.58725E-12
3.8150	3.8200	4.06343E-12
3.8200	3.8250	3.38922E-12
3.8250	3.8300	7.35091E-12
3.8300	3.8350	6.96523E-12
3.8350	3.8400	6.64357E-12
3.8400	3.8450	6.35499E-12
3.8450	3.8500	5.92301E-12
3.8500	3.8550	1.26968E-12
3.8550	3.8600	1.02983E-12
3.8600	3.8650	8.59286E-13
3.8650	3.8700	6.77924E-13
3.8700	3.8750	5.69618E-13
3.8750	3.8800	5.11883E-13
3.8800	3.8850	4.33291E-13
3.8850	3.8900	2.66721E-13
3.8900	3.8950	2.31472E-13
3.8950	3.9000	2.18019E-13
3.9000	3.9050	1.11840E-13
3.9050	3.9100	1.21962E-13
3.9100	3.9150	9.47880E-14
3.9150	3.9200	6.85633E-14
3.9200	3.9250	5.76645E-14
3.9250	3.9300	4.51199E-12
3.9300	3.9350	4.48410E-12
3.9350	3.9400	4.47380E-12
3.9400	3.9450	4.48716E-12
3.9450	3.9500	4.46102E-12
3.9500	3.9550	4.48840E-12
3.9550	3.9600	4.45902E-12
3.9600	3.9650	4.46371E-12
3.9650	3.9700	4.45504E-12
3.9700	3.9750	4.47719E-12
3.9750	3.9800	3.17114E-14
3.9800	3.9850	4.53921E-14
3.9850	3.9900	3.41560E-14
3.9900	3.9950	3.03737E-14
3.9950	4.0000	4.94866E-15
***
0	0.0050	3.45477E-08
0.0050	0.0100	5.45924E-08
0.0100	0.0150	4.51324E-08
0.0150	0.0200	3.27976E-08
0.0200	0.0250	2.25992E-08
0.0250	0.0300	1.55215E-08
0.0300	0.0350	1.10991E-08
0.0350	0.0400	8.50791E-09
0.0400	0.0450	6.82195E-09
0.0450	0.0500	5.69100E-09
0.0500	0.0550	4.81353E-09
0.0550	0.0600	4.08709E-09
0.0600	0.0650	3.55553E-09
0.0650	0.0700	3.06330E-09
0.0700	0.0750	2.63682E-09
0.0750	0.0800	2.29786E-09
0.0800	0.0850	1.95698E-09
0.0850	0.0900	1.70066E-09
0.0900	0.0950	1.43811E-09
0.0950	0.1000	1.22670E-09
0.1000	0.1050	1.03675E-09
0.1050	0.1100	8.51684E-10
0.1100	0.1150	7.14738E-10
0.1150	0.1200	5.98317E-10
0.1200	0.1250	5.06718E-10
0.1250	0.1300	4.37967E-10
0.1300	0.1350	3.95595E-10
0.1350	0.1400	3.69435E-10
0.1400	0.1450	3.40936E-10
0.1450	0.1500	3.34852E-10
0.1500	0.1550	3.16193E-10
0.1550	0.1600	3.02021E-10
0.1600	0.1650	2.90488E-10
0.1650	0.1700	2.78256E-10
0.1700	0.1750	2.71663E-10
0.1750	0.1800	2.64858E-10
0.1800	0.1850	2.46916E-10
0.1850	0.1900	2.43375E-10
0.1900	0.1950	2.29736E-10
0.1950	0.2000	2.23207E-10
0.2000	0.2050	2.23490E-10
0.2050	0.2100	2.13255E-10
0.2100	0.2150	2.05762E-10
0.2150	0.2200	1.99426E-10
0.2200	0.2250	1.93282E-10
0.2250	0.2300	1.85477E-10
0.2300	0.2350	1.80744E-10
0.2350	0.2400	1.73012E-10
0.2400	0.2450	1.69722E-10
0.2450	0.2500	1.65088E-10
0.2500	0.2550	1.60992E-10
0.2550	0.2600	1.57352E-10
0.2600	0.2650	1.48541E-10
0.2650	0.2700	1.48403E-10
0.2700	0.2750	1.42881E-10
0.2750	0.2800	1.41663E-10
0.2800	0.2850	1.38485E-10
0.2850	0.2900	1.33692E-10
0.2900	0.2950	1.29123E-10
0.2950	0.3000	1.22829E-10
0.3000	0.3050	1.19266E-10
0.3050	0.3100	1.18358E-10
0.3100	0.3150	1.13318E-10
0.3150	0.3200	1.10847E-10
0.3200	0.3250	1.07626E-10
0.3250	0.3300	1.04432E-10
0.3300	0.3350	1.04348E-10
0.3350	0.3400	9.82808E-11
0.3400	0.3450	9.84152E-11
0.3450	0.3500	9.53791E-11
0.3500	0.3550	9.13463E-11
0.3550	0.3600	8.67789E-11
0.3600	0.3650	8.55019E-11
0.3650	0.3700	8.54545E-11
0.3700	0.3750	8.07008E-11
0.3750	0.3800	7.84878E-11
0.3800	0.3850	7.44096E-11
0.3850	0.3900	7.48112E-11
0.3900	0.3950	6.93875E-11
0.3950	0.4000	6.83460E-11
0.4000	0.4050	6.70383E-11
0.4050	0.4100	6.51582E-11
0.4100	0.4150	6.18863E-11
0.4150	0.4200	6.01058E-11
0.4200	0.4250	5.86836E-11
0.4250	0.4300	5.49288E-11
0.4300	0.4350	5.51314E-11
0.4350	0.4400	5.30877E-11
0.4400	0.4450	4.84847E-11
0.4450	0.4500	4.87099E-11
0.4500	0.4550	4.62071E-11
0.4550	0.4600	4.47160E-11
0.4600	0.4650	4.25848E-11
0.4650	0.4700	4.14494E-11
0.4700	0.4750	4.04777E-11
0.4750	0.4800	3.60494E-11
0.4800	0.4850	3.60387E-11
0.4850	0.4900	3.41100E-11
0.4900	0.4950	3.46083E-11
0.4950	0.5000	3.21832E-11
0.5000	0.5050	3.26903E-11
0.5050	0.5100	3.10283E-11
0.5100	0.5150	2.97828E-11
0.5150	0.5200	3.02840E-11
0.5200	0.5250	2.90768E-11
0.5250	0.5300	2.96481E-11
0.5300	0.5350	2.89529E-11
0.5350	0.5400	2.92066E-11
0.5400	0.5450	2.89762E-11
0.5450	0.5500	2.91873E-11
0.5500	0.5550	2.98829E-11
0.5550	0.5600	2.97444E-11
0.5600	0.5650	3.00504E-11
0.5650	0.5700	3.08141E-11
0.5700	0.5750	3.03238E-11
0.5750	0.5800	3.15594E-11
0.5800	0.5850	3.22980E-11
0.5850	0.5900	3.28871E-11
0.5900	0.5950	3.29400E-11
0.5950	0.6000	3.30212E-11
0.6000	0.6050	3.41965E-11
0.6050	0.6100	3.46312E-11
0.6100	0.6150	3.51973E-11
0.6150	0.6200	3.52491E-11
0.6200	0.6250	3.59565E-11
0.6250	0.6300	3.47738E-11
0.6300	0.6350	3.45388E-11
0.6350	0.6400	3.42512E-11
0.6400	0.6450	3.41040E-11
0.6450	0.6500	3.37400E-11
0.6500	0.6550	3.45620E-11
0.6550	0.6600	3.54127E-11
0.6600	0.6650	3.66723E-11
0.6650	0.6700	3.80851E-11
0.6700	0.6750	4.03167E-11
0.6750	0.6800	4.28201E-11
0.6800	0.6850	4.46746E-11
0.6850	0.6900	4.72374E-11
0.6900	0.6950	4.95783E-11
0.6950	0.7000	5.25263E-11
0.7000	0.7050	5.59982E-11
0.7050	0.7100	5.89182E-11
0.7100	0.7150	6.22472E-11
0.7150	0.7200	6.63377E-11
0.7200	0.7250	6.91191E-11
0.7250	0.7300	7.38903E-11
0.7300	0.7350	7.85918E-11
0.7350	0.7400	8.75827E-11
0.7400	0.7450	9.90442E-11
0.7450	0.7500	1.14562E-10
0.7500	0.7550	1.41432E-10
0.7550	0.7600	1.77736E-10
0.7600	0.7650	2.26054E-10
0.7650	0.7700	2.82833E-10
0.7700	0.7750	3.37903E-10
0.7750	0.7800	3.78828E-10
0.7800	0.7850	3.94225E-10
0.7850	0.7900	3.72314E-10
0.7900	0.7950	3.25209E-10
0.7950	0.8000	2.63101E-10
0.8000	0.8050	1.98552E-10
0.8050	0.8100	1.44420E-10
0.8100	0.8150	1.02277E-10
0.8150	0.8200	7.47132E-11
0.8200	0.8250	5.54338E-11
0.8250	0.8300	4.32408E-11
0.8300	0.8350	3.56740E-11
0.8350	0.8400	3.04536E-11
0.8400	0.8450	2.62426E-11
0.8450	0.8500	2.37702E-11
0.8500	0.8550	2.10703E-11
0.8550	0.8600	1.95157E-11
0.8600	0.8650	1.76134E-11
0.8650	0.8700	1.58166E-11
0.8700	0.8750	1.48732E-11
0.8750	0.8800	1.34464E-11
0.8800	0.8850	1.27049E-11
0.8850	0.8900	1.14975E-11
0.8900	0.8950	1.09605E-11
0.8950	0.9000	1.01466E-11
0.9000	0.9050	1.00970E-11
0.9050	0.9100	9.35887E-12
0.9100	0.9150	8.74243E-12
0.9150	0.9200	8.41623E-12
0.9200	0.9250	8.03296E-12
0.9250	0.9300	7.83529E-12
0.9300	0.9350	7.48401E-12
0.9350	0.9400	7.29384E-12
0.9400	0.9450	7.38975E-12
0.9450	0.9500	7.39335E-12
0.9500	0.9550	7.86239E-12
0.9550	0.9600	8.69705E-12
0.9600	0.9650	1.02435E-11
0.9650	0.9700	1.26041E-11
0.9700	0.9750	1.71378E-11
0.9750	0.9800	2.49674E-11
0.9800	0.9850	3.62542E-11
0.9850	0.9900	5.31044E-11
0.9900	0.9950	7.52988E-11
0.9950	1.0000	1.02996E-10
1.0000	1.0050	1.34358E-10
1.0050	1.0100	1.64326E-10
1.0100	1.0150	1.88630E-10
1.0150	1.0200	2.01464E-10
1.0200	1.0250	2.00483E-10
1.0250	1.0300	1.85359E-10
1.0300	1.0350	1.59496E-10
1.0350	1.0400	1.28134E-10
1.0400	1.0450	9.59871E-11
1.0450	1.0500	6.73598E-11
1.0500	1.0550	4.50789E-11
1.0550	1.0600	2.90470E-11
1.0600	1.0650	1.82683E-11
1.0650	1.0700	1.19317E-11
1.0700	1.0750	7.62544E-12
1.0750	1.0800	5.30691E-12
1.0800	1.0850	3.92586E-12
1.0850	1.0900	3.28605E-12
1.0900	1.0950	2.73839E-12
1.0950	1.1000	2.38471E-12
1.1000	1.1050	2.54587E-12
1.1050	1.1100	2.42471E-12
1.1100	1.1150	2.29474E-12
1.1150	1.1200	2.20127E-12
1.1200	1.1250	1.99375E-12
1.1250	1.1300	1.95215E-12
1.1300	1.1350	1.90141E-12
1.1350	1.1400	1.83709E-12
1.1400	1.1450	1.79391E-12
1.1450	1.1500	1.63752E-12
1.1500	1.1550	1.38742E-12
1.1550	1.1600	1.35339E-12
1.1600	1.1650	1.32980E-12
1.1650	1.1700	1.23600E-12
1.1700	1.1750	1.20072E-12
1.1750	1.1800	1.20282E-12
1.1800	1.1850	1.15693E-12
1.1850	1.1900	1.08189E-12
1.1900	1.1950	1.07723E-12
1.1950	1.2000	1.05241E-12
1.2000	1.2050	5.45758E-13
1.2050	1.2100	5.45511E-13
1.2100	1.2150	5.26034E-13
1.2150	1.2200	5.00817E-13
1.2200	1.2250	4.82448E-13
1.2250	1.2300	4.75883E-13
1.2300	1.2350	4.29990E-13
1.2350	1.2400	4.23171E-13
1.2400	1.2450	4.30641E-13
1.2450	1.2500	4.33588E-13
1.2500	1.2550	1.31788E-12
1.2550	1.2600	1.29055E-12
1.2600	1.2650	1.26893E-12
1.2650	1.2700	1.26493E-12
1.2700	1.2750	1.22887E-12
1.2750	1.2800	1.25851E-12
1.2800	1.2850	1.21342E-12
1.2850	1.2900	1.25732E-12
1.2900	1.2950	1.21175E-12
1.2950	1.3000	1.23603E-12
1.3000	1.3050	1.17927E-12
1.3050	1.3100	1.18061E-12
1.3100	1.3150	1.16954E-12
1.3150	1.3200	1.17655E-12
1.3200	1.3250	1.15302E-12
1.3250	1.3300	1.13986E-12
1.3300	1.3350	1.12846E-12
1.3350	1.3400	1.11554E-12
1.3400	1.3450	1.12163E-12
1.3450	1.3500	1.11960E-12
1.3500	1.3550	8.88789E-13
1.3550	1.3600	9.17009E-13
1.3600	1.3650	8.95585E-13
1.3650	1.3700	8.86113E-13
1.3700	1.3750	8.61185E-13
1.3750	1.3800	8.42599E-13
1.3800	1.3850	8.59729E-13
1.3850	1.3900	8.68991E-13
1.3900	1.3950	8.59002E-13
1.3950	1.4000	8.42234E-13
1.4000	1.4050	1.68797E-13
1.4050	1.4100	1.43765E-13
1.4100	1.4150	1.42568E-13
1.4150	1.4200	1.31744E-13
1.4200	1.4250	1.20708E-13
1.4250	1.4300	1.24369E-13
1.4300	1.4350	1.35125E-13
1.4350	1.4400	1.11925E-13
1.4400	1.4450	1.22409E-13
1.4450	1.4500	1.25129E-13
1.4500	1.4550	1.25045E-12
1.4550	1.4600	1.25553E-12
1.4600	1.4650	1.24976E-12
1.4650	1.4700	1.23880E-12
1.4700	1.4750	1.24065E-12
1.4750	1.4800	1.26027E-12
1.4800	1.4850	1.25004E-12
1.4850	1.4900	1.24303E-12
1.4900	1.4950	1.24152E-12
1.4950	1.5000	1.25971E-12
1.5000	1.5050	5.49101E-13
1.5050	1.5100	5.40717E-13
1.5100	1.5150	5.55808E-13
1.5150	1.5200	5.43607E-13
1.5200	1.5250	5.53079E-13
1.5250	1.5300	5.43458E-13
1.5300	1.5350	5.41957E-13
1.5350	1.5400	5.39383E-13
1.5400	1.5450	5.37271E-13
1.5450	1.5500	5.31911E-13
1.5500	1.5550	6.88588E-14
1.5550	1.5600	7.29527E-14
1.5600	1.5650	6.82961E-14
1.5650	1.5700	8.44305E-14
1.5700	1.5750	5.88855E-14
1.5750	1.5800	6.33970E-14
1.5800	1.5850	5.54101E-14
1.5850	1.5900	6.06869E-14
1.5900	1.5950	5.94009E-14
1.5950	1.6000	5.11016E-14
1.6000	1.6050	7.48417E-13
1.6050	1.6100	7.29902E-13
1.6100	1.6150	7.47996E-13
1.6150	1.6200	7.52544E-13
1.6200	1.6250	7.36663E-13
1.6250	1.6300	7.43517E-13
1.6300	1.6350	7.52005E-13
1.6350	1.6400	7.39166E-13
1.6400	1.6450	7.37512E-13
1.6450	1.6500	7.31288E-13
1.6500	1.6550	5.01342E-13
1.6550	1.6600	5.10061E-13
1.6600	1.6650	5.03034E-13
1.6650	1.6700	4.95662E-13
1.6700	1.6750	5.02286E-13
1.6750	1.6800	5.00039E-13
1.6800	1.6850	4.88859E-13
1.6850	1.6900	4.88819E-13
1.6900	1.6950	4.94002E-13
1.6950	1.7000	4.96048E-13
1.7000	1.7050	3.79232E-14
1.7050	1.7100	3.69334E-14
1.7100	1.7150	3.73051E-14
1.7150	1.7200	3.55506E-14
1.7200	1.7250	3.36652E-14
1.7250	1.7300	3.02811E-14
1.7300	1.7350	2.56387E-14
1.7350	1.7400	4.00373E-14
1.7400	1.7450	3.30997E-14
1.7450	1.7500	3.26889E-14
1.7500	1.7550	2.55933E-13
1.7550	1.7600	2.53275E-13
1.7600	1.7650	2.58151E-13
1.7650	1.7700	2.55038E-13
1.7700	1.7750	2.72109E-13
1.7750	1.7800	2.55976E-13
1.7800	1.7850	2.56010E-13
1.7850	1.7900	2.53744E-13
1.7900	1.7950	2.62324E-13
1.7950	1.8000	2.51158E-13
1.8000	1.8050	4.86558E-13
1.8050	1.8100	4.83777E-13
1.8100	1.8150	4.79050E-13
1.8150	1.8200	4.82464E-13
1.8200	1.8250	4.82076E-13
1.8250	1.8300	4.88915E-13
1.8300	1.8350	4.90534E-13
1.8350	1.8400	4.79298E-13
1.8400	1.8450	4.77518E-13
1.8450	1.8500	4.77952E-13
1.8500	1.8550	7.14390E-13
1.8550	1.8600	7.02598E-13
1.8600	1.8650	7.14601E-13
1.8650	1.8700	7.07132E-13
1.8700	1.8750	7.08243E-13
1.8750	1.8800	7.07231E-13
1.8800	1.8850	7.09936E-13
1.8850	1.8900	7.08613E-13
1.8900	1.8950	7.14727E-13
1.8950	1.9000	7.04418E-13
1.9000	1.9050	7.15686E-13
1.9050	1.9100	7.03725E-13
1.9100	1.9150	7.05771E-13
1.9150	1.9200	7.03885E-13
1.9200	1.9250	7.06294E-13
1.9250	1.9300	7.02361E-13
1.9300	1.9350	7.04703E-13
1.9350	1.9400	7.05772E-13
1.9400	1.9450	7.01401E-13
1.9450	1.9500	6.99461E-13
1.9500	1.9550	4.72194E-13
1.9550	1.9600	4.71576E-13
1.9600	1.9650	4.71504E-13
1.9650	1.9700	4.71846E-13
1.9700	1.9750	4.67233E-13
1.9750	1.9800	4.70691E-13
1.9800	1.9850	4.73723E-13
1.9850	1.9900	4.70908E-13
1.9900	1.9950	4.72174E-13
1.9950	2.0000	4.69254E-13
2.0000	2.0050	4.80176E-13
2.0050	2.0100	4.79556E-13
2.0100	2.0150	4.71273E-13
2.0150	2.0200	4.67920E-13
2.0200	2.0250	4.64252E-13
2.0250	2.0300	4.69293E-13
2.0300	2.0350	4.75526E-13
2.0350	2.0400	4.69238E-13
2.0400	2.0450	4.68592E-13
2.0450	2.0500	4.77030E-13
2.0500	2.0550	2.40087E-13
2.0550	2.0600	2.38936E-13
2.0600	2.0650	2.38353E-13
2.0650	2.0700	2.41817E-13
2.0700	2.0750	2.39961E-13
2.0750	2.0800	2.36536E-13
2.0800	2.0850	2.40018E-13
2.0850	2.0900	2.42150E-13
2.0900	2.0950	2.42623E-13
2.0950	2.1000	2.41594E-13
2.1000	2.1050	4.69304E-13
2.1050	2.1100	4.69897E-13
2.1100	2.1150	4.69927E-13
2.1150	2.1200	4.68868E-13
2.1200	2.1250	4.68463E-13
2.1250	2.1300	4.69310E-13
2.1300	2.1350	4.71816E-13
2.1350	2.1400	4.64016E-13
2.1400	2.1450	4.64704E-13
2.1450	2.1500	4.65456E-13
