$m_{ee}$ (GeV/$c^2$)
7
dN/d$m_{ee}$ ($c^2$/GeV)
dN/d$m_{ee}$ ($c^2$/GeV)
dN/d$m_{ee}$ ($c^2$/GeV)
dN/d$m_{ee}$ ($c^2$/GeV)
dN/d$m_{ee}$ ($c^2$/GeV)
dN/d$m_{ee}$ ($c^2$/GeV)
dN/d$m_{ee}$ ($c^2$/GeV)
0.5-1.0 Gev/$c$ x $10^3$
1.0-1.5 Gev/$c$ x $10^2$
1.5-2.0 Gev/$c$ x $10$
2.0-2.5 Gev/$c$
2.5-3.0 Gev/$c$ x $10^{-1}$
3.0-4.0 Gev/$c$ x $10^{-2}$
4.0-5.0 Gev/$c$ x $10^{-3}$
Yes
None
None
0
0.0000	0.0050	4.42E+01
0.0050	0.0100	4.38E+01
0.0100	0.0150	2.14E+01
0.0150	0.0200	1.20E+01
0.0200	0.0250	8.14E+00
0.0250	0.0300	6.36E+00
0.0300	0.0350	5.06E+00
0.0350	0.0400	4.18E+00
0.0400	0.0450	3.64E+00
0.0450	0.0500	3.19E+00
0.0500	0.0550	2.76E+00
0.0550	0.0600	2.33E+00
0.0600	0.0650	2.10E+00
0.0650	0.0700	1.79E+00
0.0700	0.0750	1.51E+00
0.0750	0.0800	1.32E+00
0.0800	0.0850	1.13E+00
0.0850	0.0900	9.29E-01
0.0900	0.0950	8.02E-01
0.0950	0.1000	6.65E-01
0.1000	0.1050	4.99E-01
0.1050	0.1100	3.94E-01
0.1100	0.1150	3.44E-01
0.1150	0.1200	2.67E-01
0.1200	0.1250	1.93E-01
0.1250	0.1300	1.72E-01
0.1300	0.1350	1.65E-01
0.1350	0.1400	1.49E-01
0.1400	0.1450	1.51E-01
0.1450	0.1500	1.46E-01
0.1500	0.1550	1.47E-01
0.1550	0.1600	1.47E-01
0.1600	0.1650	0.144948
0.1650	0.1700	0.151945
0.1700	0.1750	0.144265
0.1750	0.1800	0.141582
0.1800	0.1850	0.140793
0.1850	0.1900	0.143032
0.1900	0.1950	0.144319
0.1950	0.2000	0.136061
0.2000	0.2050	0.139075
0.2050	0.2100	0.13257
0.2100	0.2150	0.136496
0.2150	0.2200	0.132116
0.2200	0.2250	0.1325
0.2250	0.2300	0.132154
0.2300	0.2350	0.129832
0.2350	0.2400	0.133004
0.2400	0.2450	0.132
0.2450	0.2500	0.1233
0.2500	0.2550	0.131801
0.2550	0.2600	0.133966
0.2600	0.2650	0.136016
0.2650	0.2700	0.12696
0.2700	0.2750	0.128356
0.2750	0.2800	0.130729
0.2800	0.2850	0.136268
0.2850	0.2900	0.127145
0.2900	0.2950	0.128127
0.2950	0.3000	0.12672
0.3000	0.3050	0.118923
0.3050	0.3100	0.127068
0.3100	0.3150	0.120967
0.3150	0.3200	0.116291
0.3200	0.3250	0.117559
0.3250	0.3300	0.117076
0.3300	0.3350	0.112289
0.3350	0.3400	0.112389
0.3400	0.3450	0.112277
0.3450	0.3500	0.106226
0.3500	0.3550	0.111025
0.3550	0.3600	0.116239
0.3600	0.3650	0.104436
0.3650	0.3700	0.102051
0.3700	0.3750	0.102308
0.3750	0.3800	0.101809
0.3800	0.3850	0.0990427
0.3850	0.3900	0.104974
0.3900	0.3950	0.099445
0.3950	0.4000	0.0915188
0.4000	0.4050	0.0934737
0.4050	0.4100	0.0943786
0.4100	0.4150	0.0869178
0.4150	0.4200	0.0903474
0.4200	0.4250	0.0850708
0.4250	0.4300	0.0873058
0.4300	0.4350	0.087444
0.4350	0.4400	0.0832449
0.4400	0.4450	0.0846381
0.4450	0.4500	0.0842615
0.4500	0.4550	0.0822929
0.4550	0.4600	0.0765984
0.4600	0.4650	0.0795498
0.4650	0.4700	0.0751781
0.4700	0.4750	0.0733634
0.4750	0.4800	0.0745977
0.4800	0.4850	0.0732885
0.4850	0.4900	0.0733984
0.4900	0.4950	0.0733987
0.4950	0.5000	0.0687412
0.5000	0.5050	0.0689255
0.5050	0.5100	0.0644074
0.5100	0.5150	0.0625113
0.5150	0.5200	0.0642
0.5200	0.5250	0.0654064
0.5250	0.5300	0.0643962
0.5300	0.5350	0.0664772
0.5350	0.5400	0.0647905
0.5400	0.5450	0.0649464
0.5450	0.5500	0.0639701
0.5500	0.5550	0.0608532
0.5550	0.5600	0.0651362
0.5600	0.5650	0.0626442
0.5650	0.5700	0.0623596
0.5700	0.5750	0.0633893
0.5750	0.5800	0.0656493
0.5800	0.5850	0.0611665
0.5850	0.5900	0.0616948
0.5900	0.5950	0.0621663
0.5950	0.6000	0.0610066
0.6000	0.6050	0.0624651
0.6050	0.6100	0.0646035
0.6100	0.6150	0.0613496
0.6150	0.6200	0.0620584
0.6200	0.6250	0.0606121
0.6250	0.6300	0.0577572
0.6300	0.6350	0.0568205
0.6350	0.6400	0.0547944
0.6400	0.6450	0.0535951
0.6450	0.6500	0.0517097
0.6500	0.6550	0.0504578
0.6550	0.6600	0.0480867
0.6600	0.6650	0.0521776
0.6650	0.6700	0.0511886
0.6700	0.6750	0.0527607
0.6750	0.6800	0.05419
0.6800	0.6850	0.0543892
0.6850	0.6900	0.0564486
0.6900	0.6950	0.0570149
0.6950	0.7000	0.0558121
0.7000	0.7050	0.0581591
0.7050	0.7100	0.0593916
0.7100	0.7150	0.0594907
0.7150	0.7200	0.0649155
0.7200	0.7250	0.0627831
0.7250	0.7300	0.0649298
0.7300	0.7350	0.0662119
0.7350	0.7400	0.0671043
0.7400	0.7450	0.0678547
0.7450	0.7500	0.0700616
0.7500	0.7550	0.0746504
0.7550	0.7600	0.0791086
0.7600	0.7650	0.0927917
0.7650	0.7700	0.123006
0.7700	0.7750	0.18703
0.7750	0.7800	0.27696
0.7800	0.7850	0.318203
0.7850	0.7900	0.273522
0.7900	0.7950	0.181726
0.7950	0.8000	0.109392
0.8000	0.8050	0.0777379
0.8050	0.8100	0.0619894
0.8100	0.8150	0.0499482
0.8150	0.8200	0.0429252
0.8200	0.8250	0.0408003
0.8250	0.8300	0.0416632
0.8300	0.8350	0.0357714
0.8350	0.8400	0.0331311
0.8400	0.8450	0.0333549
0.8450	0.8500	0.0321106
0.8500	0.8550	0.0299875
0.8550	0.8600	0.0322274
0.8600	0.8650	0.0277666
0.8650	0.8700	0.0259735
0.8700	0.8750	0.0254804
0.8750	0.8800	0.026252
0.8800	0.8850	0.0252168
0.8850	0.8900	0.0232316
0.8900	0.8950	0.0246414
0.8950	0.9000	0.020852
0.9000	0.9050	0.0218372
0.9050	0.9100	0.0211154
0.9100	0.9150	0.021267
0.9150	0.9200	0.0204078
0.9200	0.9250	0.0209685
0.9250	0.9300	0.0211091
0.9300	0.9350	0.0206319
0.9350	0.9400	0.0185726
0.9400	0.9450	0.0182268
0.9450	0.9500	0.0184156
0.9500	0.9550	0.018838
0.9550	0.9600	0.0167655
0.9600	0.9650	0.0158231
0.9650	0.9700	0.0186045
0.9700	0.9750	0.0191493
0.9750	0.9800	0.0184096
0.9800	0.9850	0.0186301
0.9850	0.9900	0.0185016
0.9900	0.9950	0.0232221
0.9950	1.0000	0.0300975
1.0000	1.0050	0.0509821
1.0050	1.0100	0.0952093
1.0100	1.0150	0.163477
1.0150	1.0200	0.220779
1.0200	1.0250	0.21848
1.0250	1.0300	0.15555
1.0300	1.0350	0.0881114
1.0350	1.0400	0.0446083
1.0400	1.0450	0.0255807
1.0450	1.0500	0.0193094
1.0500	1.0550	0.0165324
1.0550	1.0600	0.0143063
1.0600	1.0650	0.0142143
1.0650	1.0700	0.0145198
1.0700	1.0750	0.0140506
1.0750	1.0800	0.0130376
1.0800	1.0850	0.0129493
1.0850	1.0900	0.0125726
1.0900	1.0950	0.0122741
1.0950	1.1000	0.0108542
1.1000	1.1050	0.0101077
1.1050	1.1100	0.0115142
1.1100	1.1150	0.012682
1.1150	1.1200	0.010598
1.1200	1.1250	0.00986224
1.1250	1.1300	0.0114829
1.1300	1.1350	0.0100876
1.1350	1.1400	0.0100316
1.1400	1.1450	0.0103978
1.1450	1.1500	0.0122102
1.1500	1.1550	0.0103986
1.1550	1.1600	0.0112537
1.1600	1.1650	0.00976206
1.1650	1.1700	0.00830226
1.1700	1.1750	0.00879047
1.1750	1.1800	0.00904953
1.1800	1.1850	0.0088974
1.1850	1.1900	0.00835004
1.1900	1.1950	0.00925355
1.1950	1.2000	0.00974844
1.2000	1.2050	0.00876046
1.2050	1.2100	0.00781964
1.2100	1.2150	0.00867509
1.2150	1.2200	0.00934348
1.2200	1.2250	0.00716913
1.2250	1.2300	0.00761522
1.2300	1.2350	0.00876123
1.2350	1.2400	0.00927696
1.2400	1.2450	0.00757229
1.2450	1.2500	0.00823968
1.2500	1.2550	0.00746841
1.2550	1.2600	0.00667726
1.2600	1.2650	0.00705647
1.2650	1.2700	0.00805908
1.2700	1.2750	0.00726594
1.2750	1.2800	0.00698042
1.2800	1.2850	0.00770224
1.2850	1.2900	0.00706161
1.2900	1.2950	0.00665158
1.2950	1.3000	0.00736157
1.3000	1.3050	0.00792643
1.3050	1.3100	0.00725541
1.3100	1.3150	0.00623416
1.3150	1.3200	0.00485225
1.3200	1.3250	6.11E-03
1.3250	1.3300	0.00684431
1.3300	1.3350	0.00686525
1.3350	1.3400	0.00641794
1.3400	1.3450	0.00586556
1.3450	1.3500	0.004982
1.3500	1.3550	0.00628523
1.3550	1.3600	0.00672085
1.3600	1.3650	0.00639628
1.3650	1.3700	0.00507986
1.3700	1.3750	0.00619444
1.3750	1.3800	0.00648768
1.3800	1.3850	0.00546588
1.3850	1.3900	0.00571619
1.3900	1.3950	0.00720461
1.3950	1.4000	0.0062456
1.4000	1.4050	0.00583242
1.4050	1.4100	0.0051773
1.4100	1.4150	0.00681964
1.4150	1.4200	0.0054419
1.4200	1.4250	0.00475065
1.4250	1.4300	0.00599744
1.4300	1.4350	0.00448055
1.4350	1.4400	0.00516531
1.4400	1.4450	0.00534166
1.4450	1.4500	0.00556966
1.4500	1.4550	0.00525888
1.4550	1.4600	0.00507794
1.4600	1.4650	0.00407744
1.4650	1.4700	0.00566701
1.4700	1.4750	0.00531327
1.4750	1.4800	0.00467415
1.4800	1.4850	0.0058603
1.4850	1.4900	0.00429622
1.4900	1.4950	0.00469685
1.4950	1.5000	0.00489587
1.5000	1.5050	0.00493462
1.5050	1.5100	0.00364892
1.5100	1.5150	0.00521269
1.5150	1.5200	0.00468859
1.5200	1.5250	0.00457795
1.5250	1.5300	0.00433788
1.5300	1.5350	0.00406647
1.5350	1.5400	0.0038262
1.5400	1.5450	0.00432772
1.5450	1.5500	0.0035059
1.5500	1.5550	0.00404377
1.5550	1.5600	0.00456337
1.5600	1.5650	0.00336004
1.5650	1.5700	0.00404673
1.5700	1.5750	0.00294561
1.5750	1.5800	0.00323073
1.5800	1.5850	0.00392019
1.5850	1.5900	0.00323589
1.5900	1.5950	0.00370839
1.5950	1.6000	0.00342012
1.6000	1.6050	0.00367796
1.6050	1.6100	0.00340622
1.6100	1.6150	0.00342195
1.6150	1.6200	0.00328594
1.6200	1.6250	0.0040281
1.6250	1.6300	0.00264633
1.6300	1.6350	0.00324093
1.6350	1.6400	0.00368922
1.6400	1.6450	0.00396997
1.6450	1.6500	0.00344537
1.6500	1.6550	0.00377185
1.6550	1.6600	0.00378436
1.6600	1.6650	0.00327537
1.6650	1.6700	0.00338829
1.6700	1.6750	0.00308236
1.6750	1.6800	0.00340659
1.6800	1.6850	0.00292956
1.6850	1.6900	0.00220935
1.6900	1.6950	0.00234574
1.6950	1.7000	0.00226943
1.7000	1.7050	0.00302879
1.7050	1.7100	0.00289582
1.7100	1.7150	0.00281143
1.7150	1.7200	0.00350826
1.7200	1.7250	0.00290113
1.7250	1.7300	0.00307515
1.7300	1.7350	0.00326363
1.7350	1.7400	0.00256575
1.7400	1.7450	0.00212726
1.7450	1.7500	0.00251967
1.7500	1.7550	0.00207077
1.7550	1.7600	0.00205725
1.7600	1.7650	0.00282634
1.7650	1.7700	0.00294932
1.7700	1.7750	0.00190378
1.7750	1.7800	0.00263241
1.7800	1.7850	0.0018078
1.7850	1.7900	0.00200257
1.7900	1.7950	0.00234527
1.7950	1.8000	0.00231454
1.8000	1.8050	0.00151908
1.8050	1.8100	0.00226023
1.8100	1.8150	0.00144897
1.8150	1.8200	0.00213448
1.8200	1.8250	0.00193401
1.8250	1.8300	0.00193143
1.8300	1.8350	0.0019877
1.8350	1.8400	0.00225111
1.8400	1.8450	0.00192904
1.8450	1.8500	0.00148959
1.8500	1.8550	0.00213034
1.8550	1.8600	0.00173528
1.8600	1.8650	0.0025081
1.8650	1.8700	0.0023536
1.8700	1.8750	0.00186185
1.8750	1.8800	0.00218323
1.8800	1.8850	0.00250033
1.8850	1.8900	0.00181902
1.8900	1.8950	0.00147831
1.8950	1.9000	0.00158827
1.9000	1.9050	0.00144745
1.9050	1.9100	0.00141815
1.9100	1.9150	0.00129795
1.9150	1.9200	0.00246077
1.9200	1.9250	0.00189284
1.9250	1.9300	0.00160409
1.9300	1.9350	0.0017909
1.9350	1.9400	0.00161354
1.9400	1.9450	0.00197745
1.9450	1.9500	0.00136578
1.9500	1.9550	0.00116699
1.9550	1.9600	0.00166267
1.9600	1.9650	0.000837344
1.9650	1.9700	0.00112348
1.9700	1.9750	0.000922617
1.9750	1.9800	0.00173817
1.9800	1.9850	0.000607716
1.9850	1.9900	0.00179484
1.9900	1.9950	0.00103333
1.9950	2.0000	0.00116959
2.0000	2.0050	0.00153979
2.0050	2.0100	0.00166154
2.0100	2.0150	0.00110537
2.0150	2.0200	0.00167795
2.0200	2.0250	0.00148024
2.0250	2.0300	0.000902541
2.0300	2.0350	0.00154373
2.0350	2.0400	0.000995768
2.0400	2.0450	0.00116036
2.0450	2.0500	0.00136201
2.0500	2.0550	0.00123141
2.0550	2.0600	0.00121709
2.0600	2.0650	0.000914313
2.0650	2.0700	0.00110677
2.0700	2.0750	0.00110055
2.0750	2.0800	0.00124373
2.0800	2.0850	0.0012786
2.0850	2.0900	0.0012428
2.0900	2.0950	0.000844846
2.0950	2.1000	0.00140636
2.1000	2.1050	0.00123532
2.1050	2.1100	0.000897971
2.1100	2.1150	0.00121916
2.1150	2.1200	0.00149853
2.1200	2.1250	0.000840187
2.1250	2.1300	0.000340485
2.1300	2.1350	0.000846136
2.1350	2.1400	0.000907086
2.1400	2.1450	0.000965077
2.1450	2.1500	0.000775101
2.1500	2.1550	0.000662776
2.1550	2.1600	0.00108414
2.1600	2.1650	0.000779724
2.1650	2.1700	0.00116659
2.1700	2.1750	0.0007117
2.1750	2.1800	0.000902986
2.1800	2.1850	0.00103138
2.1850	2.1900	0.0011696
2.1900	2.1950	0.00103426
2.1950	2.2000	0.000213768
2.2000	2.2050	0.000527263
2.2050	2.2100	0.000464225
2.2100	2.2150	0.000847161
2.2150	2.2200	0.00102117
2.2200	2.2250	0.000524891
2.2250	2.2300	0.00115452
2.2300	2.2350	0.000963482
2.2350	2.2400	0.000722272
2.2400	2.2450	0.000721032
2.2450	2.2500	0.000785021
2.2500	2.2550	0.000970913
2.2550	2.2600	0.000524575
2.2600	2.2650	0.000652001
2.2650	2.2700	0.000961266
2.2700	2.2750	0.000330326
2.2750	2.2800	0.00115473
2.2800	2.2850	0.000580498
2.2850	2.2900	0.000709149
2.2900	2.2950	0.000461248
2.2950	2.3000	0.000968863
2.3000	2.3050	0.000584003
2.3050	2.3100	0.000583075
2.3100	2.3150	0.000331723
2.3150	2.3200	0.000271984
2.3200	2.3250	0.000765511
2.3250	2.3300	0.000462554
2.3300	2.3350	0.000648429
2.3350	2.3400	0.000764101
2.3400	2.3450	0.000585149
2.3450	2.3500	0.00147338
2.3500	2.3550	0.000400824
2.3550	2.3600	0.000640889
2.3600	2.3650	0.000392917
2.3650	2.3700	0.000389182
2.3700	2.3750	0.00103777
2.3750	2.3800	0.000639466
2.3800	2.3850	0.000767963
2.3850	2.3900	0.000576845
2.3900	2.3950	0.000892589
2.3950	2.4000	0.000640278
2.4000	2.4050	0.00109931
2.4050	2.4100	0.000393872
2.4100	2.4150	0.000446321
2.4150	2.4200	0.000405636
2.4200	2.4250	0.000896024
2.4250	2.4300	0.000408314
2.4300	2.4350	0.000328701
2.4350	2.4400	0.000397859
2.4400	2.4450	0.000648317
2.4450	2.4500	0.000507625
2.4500	2.4550	0.000959375
2.4550	2.4600	0.000773218
2.4600	2.4650	0.000448206
2.4650	2.4700	0.000461947
2.4700	2.4750	0.000518601
2.4750	2.4800	0.000202979
2.4800	2.4850	0.000393209
2.4850	2.4900	0.000257558
2.4900	2.4950	0.000479396
2.4950	2.5000	0.000207177
2.5000	2.5050	0.000337883
2.5050	2.5100	0.000523088
2.5100	2.5150	0.000326919
2.5150	2.5200	0.000194759
2.5200	2.5250	0.000458763
2.5250	2.5300	0.000448628
2.5300	2.5350	0.000132634
2.5350	2.5400	0.000196791
2.5400	2.5450	0.000260234
2.5450	2.5500	0.000268181
2.5500	2.5550	0.000269603
2.5550	2.5600	0.000390951
2.5600	2.5650	0.000449404
2.5650	2.5700	0.000384705
2.5700	2.5750	0.000133763
2.5750	2.5800	0.000263912
2.5800	2.5850	0.000260884
2.5850	2.5900	0.000708762
2.5900	2.5950	0.000388441
2.5950	2.6000	0.000128413
2.6000	2.6050	0.000261951
2.6050	2.6100	0.000395731
2.6100	2.6150	0.000327119
2.6150	2.6200	0.000327793
2.6200	2.6250	0.000570645
2.6250	2.6300	0.000198047
2.6300	2.6350	0.000263852
2.6350	2.6400	0.000447209
2.6400	2.6450	0.000391537
2.6450	2.6500	0.000335316
2.6500	2.6550	0.000384091
2.6550	2.6600	0.000320611
2.6600	2.6650	0.000637745
2.6650	2.6700	0.000701988
2.6700	2.6750	0.000443025
2.6750	2.6800	0.00057808
2.6800	2.6850	0.00019717
2.6850	2.6900	0.000448418
2.6900	2.6950	0.000262268
2.6950	2.7000	0.000200173
2.7000	2.7050	0.000323147
2.7050	2.7100	0.000139805
2.7100	2.7150	0.000449672
2.7150	2.7200	0.000196762
2.7200	2.7250	0.000325798
2.7250	2.7300	0.000197071
2.7300	2.7350	0.000450617
2.7350	2.7400	0.000140713
2.7400	2.7450	0.000261453
2.7450	2.7500	0.000200277
2.7500	2.7550	0.00026018
2.7550	2.7600	0.000284659
2.7600	2.7650	0.000315475
2.7650	2.7700	0.000204691
2.7700	2.7750	0.000260558
2.7750	2.7800	0.000258872
2.7800	2.7850	0.000198119
2.7850	2.7900	0.000325827
2.7900	2.7950	0.000201883
2.7950	2.8000	0.00026012
2.8000	2.8050	0.000145329
2.8050	2.8100	1.15E-05
2.8100	2.8150	0.000196233
2.8150	2.8200	0.000453201
2.8200	2.8250	0.00027259
2.8250	2.8300	0.000826371
2.8300	2.8350	0.000192762
2.8350	2.8400	0.000195175
2.8400	2.8450	0.00021258
2.8450	2.8500	0.000261378
2.8500	2.8550	0.000323469
2.8550	2.8600	0.000389307
2.8600	2.8650	0.00019715
2.8650	2.8700	0.000390738
2.8700	2.8750	0.000263734
2.8750	2.8800	7.36E-05
2.8800	2.8850	0.000131169
2.8850	2.8900	0.000196854
2.8900	2.8950	7.19E-05
2.8950	2.9000	0.000134857
2.9000	2.9050	6.84E-05
2.9050	2.9100	0.000266646
2.9100	2.9150	7.05E-05
2.9150	2.9200	0.000261253
2.9200	2.9250	0.000133013
2.9250	2.9300	7.45E-05
2.9300	2.9350	0.000132295
2.9350	2.9400	7.07E-05
2.9400	2.9450	7.74E-05
2.9450	2.9500	0.000144091
2.9500	2.9550	8.20E-05
2.9550	2.9600	0.000273722
2.9600	2.9650	0.000287319
2.9650	2.9700	0.000107715
2.9700	2.9750	0.00012678
2.9750	2.9800	0.000161253
2.9800	2.9850	0.000328071
2.9850	2.9900	0.000169725
2.9900	2.9950	0.000439478
2.9950	3.0000	0.000337521
3.0000	3.0050	0.000586725
3.0050	3.0100	0.00080896
3.0100	3.0150	0.00085887
3.0150	3.0200	0.00115498
3.0200	3.0250	0.00137538
3.0250	3.0300	0.00172445
3.0300	3.0350	0.00221166
3.0350	3.0400	0.00266416
3.0400	3.0450	0.00319408
3.0450	3.0500	0.00360733
3.0500	3.0550	0.00427427
3.0550	3.0600	0.004805
3.0600	3.0650	0.00528202
3.0650	3.0700	0.0058539
3.0700	3.0750	0.00627431
3.0750	3.0800	0.00673025
3.0800	3.0850	0.00708374
3.0850	3.0900	0.0073063
3.0900	3.0950	0.00756979
3.0950	3.1000	0.00740227
3.1000	3.1050	0.00741595
3.1050	3.1100	0.00708656
3.1100	3.1150	0.00678552
3.1150	3.1200	0.00640745
3.1200	3.1250	0.00601602
3.1250	3.1300	0.00530342
3.1300	3.1350	0.00486979
3.1350	3.1400	0.00409682
3.1400	3.1450	0.00378381
3.1450	3.1500	0.00323277
3.1500	3.1550	0.00281988
3.1550	3.1600	0.00213328
3.1600	3.1650	0.00171121
3.1650	3.1700	0.00132621
3.1700	3.1750	0.00117371
3.1750	3.1800	0.00081307
3.1800	3.1850	0.000809042
3.1850	3.1900	0.000592373
3.1900	3.1950	0.000404075
3.1950	3.2000	0.000315489
3.2000	3.2050	0.0002244
3.2050	3.2100	0.000250476
3.2100	3.2150	0.000268101
3.2150	3.2200	5.89E-05
3.2200	3.2250	0.00016367
3.2250	3.2300	0.000151895
3.2300	3.2350	0.000149774
3.2350	3.2400	1.75E-05
3.2400	3.2450	0.000198542
3.2450	3.2500	9.85E-06
3.2500	3.2550	6.65E-05
3.2550	3.2600	6.78E-06
3.2600	3.2650	4.73E-06
3.2650	3.2700	6.57E-05
3.2700	3.2750	0.000132455
3.2750	3.2800	5.06E-06
3.2800	3.2850	7.84E-06
3.2850	3.2900	6.42E-06
3.2900	3.2950	0.000192874
3.2950	3.3000	5.29E-06
3.3000	3.3050	6.82E-05
3.3050	3.3100	6.68E-05
3.3100	3.3150	8.26E-06
3.3150	3.3200	6.42E-05
3.3200	3.3250	6.40E-05
3.3250	3.3300	6.72E-05
3.3300	3.3350	6.42E-05
3.3350	3.3400	6.84E-05
3.3400	3.3450	0.000190528
3.3450	3.3500	0.000199028
3.3500	3.3550	6.60E-05
3.3550	3.3600	0.000128442
3.3600	3.3650	0.000129974
3.3650	3.3700	6.17E-06
3.3700	3.3750	6.96E-05
3.3750	3.3800	4.29E-06
3.3800	3.3850	5.86E-06
3.3850	3.3900	6.28E-05
3.3900	3.3950	0.000129654
3.3950	3.4000	6.35E-06
3.4000	3.4050	4.61E-06
3.4050	3.4100	0.000129978
3.4100	3.4150	6.68E-06
3.4150	3.4200	3.18E-06
3.4200	3.4250	6.97E-05
3.4250	3.4300	1.40E-07
3.4300	3.4350	0.000132228
3.4350	3.4400	4.28E-06
3.4400	3.4450	1.83E-06
3.4450	3.4500	5.55E-06
3.4500	3.4550	6.00E-06
3.4550	3.4600	6.29E-05
3.4600	3.4650	3.29E-06
3.4650	3.4700	8.78E-06
3.4700	3.4750	7.48E-06
3.4750	3.4800	7.40E-05
3.4800	3.4850	8.90E-07
3.4850	3.4900	0.000126888
3.4900	3.4950	6.17E-06
3.4950	3.5000	3.59E-07
3.5000	3.5050	5.36E-06
3.5050	3.5100	5.66E-07
3.5100	3.5150	0.000129747
3.5150	3.5200	9.83E-06
3.5200	3.5250	1.91E-06
3.5250	3.5300	6.42E-05
3.5300	3.5350	3.04E-06
3.5350	3.5400	6.72E-05
3.5400	3.5450	1.05E-05
3.5450	3.5500	5.09E-06
3.5500	3.5550	0.000133378
3.5550	3.5600	7.17E-05
3.5600	3.5650	0.000135605
3.5650	3.5700	1.03E-05
3.5700	3.5750	1.22E-05
3.5750	3.5800	1.45E-05
3.5800	3.5850	8.15E-05
3.5850	3.5900	2.12E-05
3.5900	3.5950	0.000147332
3.5950	3.6000	8.77E-05
3.6000	3.6050	9.35E-05
3.6050	3.6100	9.24E-05
3.6100	3.6150	9.81E-05
3.6150	3.6200	4.19E-05
3.6200	3.6250	4.31E-05
3.6250	3.6300	4.91E-05
3.6300	3.6350	0.000117007
3.6350	3.6400	5.80E-05
3.6400	3.6450	6.12E-05
3.6450	3.6500	6.82E-05
3.6500	3.6550	6.82E-05
3.6550	3.6600	0.000135635
3.6600	3.6650	8.16E-05
3.6650	3.6700	8.08E-05
3.6700	3.6750	0.000211126
3.6750	3.6800	0.000147409
3.6800	3.6850	0.000147343
3.6850	3.6900	0.000147135
3.6900	3.6950	0.000207742
3.6950	3.7000	8.02E-05
3.7000	3.7050	0.000211338
3.7050	3.7100	7.47E-05
3.7100	3.7150	7.26E-05
3.7150	3.7200	6.74E-05
3.7200	3.7250	0.000192782
3.7250	3.7300	6.05E-05
3.7300	3.7350	5.46E-05
3.7350	3.7400	5.28E-05
3.7400	3.7450	4.62E-05
3.7450	3.7500	4.56E-05
3.7500	3.7550	0.000164278
3.7550	3.7600	3.61E-05
3.7600	3.7650	9.23E-05
3.7650	3.7700	0.000149255
3.7700	3.7750	2.43E-05
3.7750	3.7800	8.12E-05
3.7800	3.7850	1.71E-05
3.7850	3.7900	7.60E-05
3.7900	3.7950	1.01E-05
3.7950	3.8000	9.18E-06
3.8000	3.8050	6.60E-06
3.8050	3.8100	7.16E-05
3.8100	3.8150	1.08E-05
3.8150	3.8200	6.61E-06
3.8200	3.8250	2.81E-06
3.8250	3.8300	6.61E-05
3.8300	3.8350	7.10E-05
3.8350	3.8400	0.000127908
3.8400	3.8450	0.000126732
3.8450	3.8500	6.51E-05
3.8500	3.8550	6.45E-05
3.8550	3.8600	2.00E-06
3.8600	3.8650	5.47E-06
3.8650	3.8700	6.47E-05
3.8700	3.8750	3.68E-06
3.8750	3.8800	2.87E-06
3.8800	3.8850	9.46E-07
3.8850	3.8900	0.000125763
3.8900	3.8950	5.63E-08
3.8950	3.9000	6.43E-05
3.9000	3.9050	0.000126528
3.9050	3.9100	2.85E-06
3.9100	3.9150	4.21E-06
3.9150	3.9200	2.38E-06
3.9200	3.9250	3.27E-06
3.9250	3.9300	6.67E-05
3.9300	3.9350	6.29E-05
3.9350	3.9400	6.71E-05
3.9400	3.9450	6.28E-05
3.9450	3.9500	3.85E-06
3.9500	3.9550	3.78E-06
3.9550	3.9600	6.61E-05
3.9600	3.9650	4.49E-06
3.9650	3.9700	6.38E-05
3.9700	3.9750	1.55E-06
3.9750	3.9800	6.56E-05
3.9800	3.9850	4.52E-06
3.9850	3.9900	0.00012791
3.9900	3.9950	5.52E-09
3.9950	4.0000	3.55E-06
***
0.0000	0.0050	3.48399
0.0050	0.0100	3.57785
0.0100	0.0150	1.83781
0.0150	0.0200	1.02436
0.0200	0.0250	0.686247
0.0250	0.0300	0.532297
0.0300	0.0350	0.42677
0.0350	0.0400	0.355728
0.0400	0.0450	0.304049
0.0450	0.0500	0.254378
0.0500	0.0550	0.21887
0.0550	0.0600	0.192111
0.0600	0.0650	0.166355
0.0650	0.0700	0.141412
0.0700	0.0750	0.12404
0.0750	0.0800	0.105304
0.0800	0.0850	0.089137
0.0850	0.0900	0.0765066
0.0900	0.0950	0.0636492
0.0950	0.1000	0.0539398
0.1000	0.1050	0.042755
0.1050	0.1100	0.0345389
0.1100	0.1150	0.0276474
0.1150	0.1200	0.0209304
0.1200	0.1250	0.016741
0.1250	0.1300	0.0136364
0.1300	0.1350	0.012882
0.1350	0.1400	0.0122723
0.1400	0.1450	0.0118507
0.1450	0.1500	0.0113587
0.1500	0.1550	0.0107712
0.1550	0.1600	0.0108073
0.1600	0.1650	0.0100137
0.1650	0.1700	0.00984119
0.1700	0.1750	0.00954515
0.1750	0.1800	0.0091186
0.1800	0.1850	0.00891376
0.1850	0.1900	0.00859675
0.1900	0.1950	0.00807635
0.1950	0.2000	0.00795283
0.2000	0.2050	0.00748489
0.2050	0.2100	0.00778624
0.2100	0.2150	0.00749509
0.2150	0.2200	0.00727204
0.2200	0.2250	0.00688194
0.2250	0.2300	0.00676301
0.2300	0.2350	0.00656968
0.2350	0.2400	0.00646277
0.2400	0.2450	0.00616152
0.2450	0.2500	0.00569983
0.2500	0.2550	0.0060615
0.2550	0.2600	0.00583767
0.2600	0.2650	0.00526655
0.2650	0.2700	0.00547983
0.2700	0.2750	0.00556766
0.2750	0.2800	0.00556707
0.2800	0.2850	0.0052687
0.2850	0.2900	0.00518255
0.2900	0.2950	0.00492547
0.2950	0.3000	0.00483608
0.3000	0.3050	0.00469732
0.3050	0.3100	0.00459955
0.3100	0.3150	0.00430983
0.3150	0.3200	0.00441071
0.3200	0.3250	0.00426673
0.3250	0.3300	0.00427474
0.3300	0.3350	0.00398541
0.3350	0.3400	0.00414845
0.3400	0.3450	0.00371025
0.3450	0.3500	0.00399939
0.3500	0.3550	0.00385298
0.3550	0.3600	0.0035839
0.3600	0.3650	0.00341232
0.3650	0.3700	0.00349579
0.3700	0.3750	0.00340682
0.3750	0.3800	0.00323197
0.3800	0.3850	0.00319648
0.3850	0.3900	0.00337036
0.3900	0.3950	0.00305782
0.3950	0.4000	0.00305337
0.4000	0.4050	0.00290449
0.4050	0.4100	0.0026689
0.4100	0.4150	0.00294243
0.4150	0.4200	0.00277391
0.4200	0.4250	0.00277108
0.4250	0.4300	0.00245433
0.4300	0.4350	0.00251319
0.4350	0.4400	0.00239982
0.4400	0.4450	0.00218451
0.4450	0.4500	0.00225139
0.4500	0.4550	0.00218072
0.4550	0.4600	0.00217305
0.4600	0.4650	0.00217103
0.4650	0.4700	0.00215311
0.4700	0.4750	0.00197888
0.4750	0.4800	0.00211881
0.4800	0.4850	0.00195924
0.4850	0.4900	0.00195936
0.4900	0.4950	0.0017889
0.4950	0.5000	0.0018424
0.5000	0.5050	0.00181355
0.5050	0.5100	0.00187093
0.5100	0.5150	0.00197392
0.5150	0.5200	0.00181128
0.5200	0.5250	0.00178378
0.5250	0.5300	0.00187785
0.5300	0.5350	0.00182821
0.5350	0.5400	0.00172437
0.5400	0.5450	0.00181635
0.5450	0.5500	0.00187199
0.5500	0.5550	0.00177858
0.5550	0.5600	0.00179276
0.5600	0.5650	0.0018383
0.5650	0.5700	0.00175904
0.5700	0.5750	0.00180103
0.5750	0.5800	0.00193001
0.5800	0.5850	0.00179228
0.5850	0.5900	0.0019283
0.5900	0.5950	0.0019427
0.5950	0.6000	0.00182652
0.6000	0.6050	0.00186539
0.6050	0.6100	0.00178588
0.6100	0.6150	0.00193876
0.6150	0.6200	0.00178453
0.6200	0.6250	0.00180491
0.6250	0.6300	0.00182203
0.6300	0.6350	0.00168386
0.6350	0.6400	0.0017796
0.6400	0.6450	0.00162567
0.6450	0.6500	0.00168778
0.6500	0.6550	0.00173577
0.6550	0.6600	0.00160857
0.6600	0.6650	0.00181039
0.6650	0.6700	0.00180008
0.6700	0.6750	0.00171957
0.6750	0.6800	0.00179773
0.6800	0.6850	0.00185779
0.6850	0.6900	0.00188894
0.6900	0.6950	0.00180581
0.6950	0.7000	0.00202224
0.7000	0.7050	0.002121
0.7050	0.7100	0.0021893
0.7100	0.7150	0.00226626
0.7150	0.7200	0.0023685
0.7200	0.7250	0.00226541
0.7250	0.7300	0.00236162
0.7300	0.7350	0.00239422
0.7350	0.7400	0.0025375
0.7400	0.7450	0.0026511
0.7450	0.7500	0.00276294
0.7500	0.7550	0.00300529
0.7550	0.7600	0.00330041
0.7600	0.7650	0.00435422
0.7650	0.7700	0.0059112
0.7700	0.7750	0.00877679
0.7750	0.7800	0.011554
0.7800	0.7850	0.0125903
0.7850	0.7900	0.0109152
0.7900	0.7950	0.00787268
0.7950	0.8000	0.00506313
0.8000	0.8050	0.00335328
0.8050	0.8100	0.00240833
0.8100	0.8150	0.00200453
0.8150	0.8200	0.0017275
0.8200	0.8250	0.00153382
0.8250	0.8300	0.00150956
0.8300	0.8350	0.001379
0.8350	0.8400	0.00120388
0.8400	0.8450	0.00114313
0.8450	0.8500	0.00119194
0.8500	0.8550	0.00112665
0.8550	0.8600	0.00103029
0.8600	0.8650	0.00100055
0.8650	0.8700	0.000850803
0.8700	0.8750	0.000940615
0.8750	0.8800	0.000904093
0.8800	0.8850	0.000852441
0.8850	0.8900	0.000900556
0.8900	0.8950	0.000837882
0.8950	0.9000	0.00080671
0.9000	0.9050	0.000776047
0.9050	0.9100	0.000831801
0.9100	0.9150	0.000662752
0.9150	0.9200	0.000741959
0.9200	0.9250	0.000748197
0.9250	0.9300	0.000669227
0.9300	0.9350	0.000683859
0.9350	0.9400	0.000780545
0.9400	0.9450	0.000717582
0.9450	0.9500	0.000663616
0.9500	0.9550	0.000645646
0.9550	0.9600	0.000768693
0.9600	0.9650	0.000693347
0.9650	0.9700	0.000649252
0.9700	0.9750	0.000651576
0.9750	0.9800	0.000729183
0.9800	0.9850	0.000787207
0.9850	0.9900	0.000924767
0.9900	0.9950	0.00115554
0.9950	1.0000	0.00196067
1.0000	1.0050	0.00328514
1.0050	1.0100	0.00563883
1.0100	1.0150	0.00854075
1.0150	1.0200	0.0105691
1.0200	1.0250	0.0102733
1.0250	1.0300	0.00795324
1.0300	1.0350	0.00528526
1.0350	1.0400	0.00282638
1.0400	1.0450	0.00152618
1.0450	1.0500	0.001016
1.0500	1.0550	0.00074427
1.0550	1.0600	0.000600149
1.0600	1.0650	0.000566393
1.0650	1.0700	0.000501776
1.0700	1.0750	0.000535417
1.0750	1.0800	0.000587803
1.0800	1.0850	0.00046736
1.0850	1.0900	0.000419364
1.0900	1.0950	0.000434432
1.0950	1.1000	0.000494084
1.1000	1.1050	0.000415647
1.1050	1.1100	0.000575645
1.1100	1.1150	0.000387762
1.1150	1.1200	0.00039347
1.1200	1.1250	0.000505981
1.1250	1.1300	0.000432342
1.1300	1.1350	0.000392807
1.1350	1.1400	0.000443117
1.1400	1.1450	0.000432669
1.1450	1.1500	0.000391369
1.1500	1.1550	0.000345944
1.1550	1.1600	0.000391669
1.1600	1.1650	0.000421079
1.1650	1.1700	0.000383664
1.1700	1.1750	0.000425723
1.1750	1.1800	0.000391286
1.1800	1.1850	0.000310582
1.1850	1.1900	0.000338448
1.1900	1.1950	0.000346743
1.1950	1.2000	0.000282642
1.2000	1.2050	0.000312206
1.2050	1.2100	0.000363244
1.2100	1.2150	0.000318436
1.2150	1.2200	0.000296578
1.2200	1.2250	0.000347682
1.2250	1.2300	0.000303968
1.2300	1.2350	0.000400102
1.2350	1.2400	0.00028445
1.2400	1.2450	0.000301437
1.2450	1.2500	0.000303015
1.2500	1.2550	0.000269828
1.2550	1.2600	0.00028785
1.2600	1.2650	0.000321259
1.2650	1.2700	0.000198107
1.2700	1.2750	0.000301845
1.2750	1.2800	0.000338744
1.2800	1.2850	0.000212362
1.2850	1.2900	0.000273254
1.2900	1.2950	0.000268141
1.2950	1.3000	0.000286621
1.3000	1.3050	0.000254594
1.3050	1.3100	0.000228996
1.3100	1.3150	0.000234537
1.3150	1.3200	0.000303009
1.3200	1.3250	0.00029629
1.3250	1.3300	0.000297091
1.3300	1.3350	0.000304168
1.3350	1.3400	0.0002086
1.3400	1.3450	0.000227885
1.3450	1.3500	0.000259139
1.3500	1.3550	0.000284384
1.3550	1.3600	0.000271502
1.3600	1.3650	0.000238007
1.3650	1.3700	0.000158582
1.3700	1.3750	0.000221194
1.3750	1.3800	0.000206412
1.3800	1.3850	0.000233717
1.3850	1.3900	0.000201645
1.3900	1.3950	0.000256633
1.3950	1.4000	0.000194461
1.4000	1.4050	0.000263488
1.4050	1.4100	0.000193314
1.4100	1.4150	0.000176657
1.4150	1.4200	0.000238628
1.4200	1.4250	0.000180541
1.4250	1.4300	0.000192769
1.4300	1.4350	0.000182138
1.4350	1.4400	0.000250588
1.4400	1.4450	0.000199973
1.4450	1.4500	0.000199068
1.4500	1.4550	0.000174862
1.4550	1.4600	0.000124759
1.4600	1.4650	0.00021804
1.4650	1.4700	0.000211384
1.4700	1.4750	0.000180907
1.4750	1.4800	0.000131434
1.4800	1.4850	0.000143011
1.4850	1.4900	0.00018059
1.4900	1.4950	0.000160955
1.4950	1.5000	0.000154338
1.5000	1.5050	0.0002236
1.5050	1.5100	0.000217404
1.5100	1.5150	0.000160421
1.5150	1.5200	0.000206306
1.5200	1.5250	0.000229725
1.5250	1.5300	0.000217652
1.5300	1.5350	0.000229664
1.5350	1.5400	0.000149816
1.5400	1.5450	0.000179185
1.5450	1.5500	0.000148849
1.5500	1.5550	0.00011616
1.5550	1.5600	0.000203644
1.5600	1.5650	0.000172583
1.5650	1.5700	0.000128317
1.5700	1.5750	0.000134457
1.5750	1.5800	0.000167692
1.5800	1.5850	0.000146805
1.5850	1.5900	0.000172784
1.5900	1.5950	0.000153007
1.5950	1.6000	9.19E-05
1.6000	1.6050	0.000160446
1.6050	1.6100	0.000165497
1.6100	1.6150	0.000178439
1.6150	1.6200	0.000155086
1.6200	1.6250	0.000122399
1.6250	1.6300	0.000129367
1.6300	1.6350	0.000135329
1.6350	1.6400	8.97E-05
1.6400	1.6450	9.69E-05
1.6450	1.6500	0.000196445
1.6500	1.6550	0.00015366
1.6550	1.6600	0.000165244
1.6600	1.6650	0.000115301
1.6650	1.6700	0.000108758
1.6700	1.6750	0.000121259
1.6750	1.6800	0.000114908
1.6800	1.6850	0.000153425
1.6850	1.6900	7.73E-05
1.6900	1.6950	0.000121157
1.6950	1.7000	0.000108978
1.7000	1.7050	0.000146435
1.7050	1.7100	0.000108558
1.7100	1.7150	0.000165141
1.7150	1.7200	0.000140716
1.7200	1.7250	0.000141196
1.7250	1.7300	7.13E-05
1.7300	1.7350	0.000170797
1.7350	1.7400	6.50E-05
1.7400	1.7450	0.000108405
1.7450	1.7500	0.000109662
1.7500	1.7550	0.000178895
1.7550	1.7600	0.000126622
1.7600	1.7650	0.000108598
1.7650	1.7700	0.000115314
1.7700	1.7750	8.31E-05
1.7750	1.7800	0.000108022
1.7800	1.7850	0.000158352
1.7850	1.7900	0.000134281
1.7900	1.7950	0.000177294
1.7950	1.8000	0.000133175
1.8000	1.8050	6.40E-05
1.8050	1.8100	0.000120794
1.8100	1.8150	0.000107882
1.8150	1.8200	8.36E-05
1.8200	1.8250	0.000108427
1.8250	1.8300	8.94E-05
1.8300	1.8350	8.33E-05
1.8350	1.8400	8.32E-05
1.8400	1.8450	0.000108021
1.8450	1.8500	9.56E-05
1.8500	1.8550	8.98E-05
1.8550	1.8600	9.57E-05
1.8600	1.8650	0.000127235
1.8650	1.8700	8.91E-05
1.8700	1.8750	9.59E-05
1.8750	1.8800	0.000101856
1.8800	1.8850	8.31E-05
1.8850	1.8900	0.00010755
1.8900	1.8950	7.06E-05
1.8950	1.9000	7.68E-05
1.9000	1.9050	0.000108429
1.9050	1.9100	9.64E-05
1.9100	1.9150	0.000120489
1.9150	1.9200	0.00010768
1.9200	1.9250	0.000101828
1.9250	1.9300	7.65E-05
1.9300	1.9350	8.32E-05
1.9350	1.9400	7.62E-05
1.9400	1.9450	8.94E-05
1.9450	1.9500	8.34E-05
1.9500	1.9550	7.66E-05
1.9550	1.9600	8.31E-05
1.9600	1.9650	7.08E-05
1.9650	1.9700	7.68E-05
1.9700	1.9750	0.000107999
1.9750	1.9800	7.00E-05
1.9800	1.9850	6.39E-05
1.9850	1.9900	8.93E-05
1.9900	1.9950	8.28E-05
1.9950	2.0000	8.25E-05
2.0000	2.0050	6.41E-05
2.0050	2.0100	3.24E-05
2.0100	2.0150	8.95E-05
2.0150	2.0200	7.64E-05
2.0200	2.0250	0.000114176
2.0250	2.0300	8.92E-05
2.0300	2.0350	0.000101309
2.0350	2.0400	7.02E-05
2.0400	2.0450	6.35E-05
2.0450	2.0500	7.06E-05
2.0500	2.0550	7.64E-05
2.0550	2.0600	6.40E-05
2.0600	2.0650	7.06E-05
2.0650	2.0700	5.72E-05
2.0700	2.0750	8.89E-05
2.0750	2.0800	9.49E-05
2.0800	2.0850	9.50E-05
2.0850	2.0900	7.69E-05
2.0900	2.0950	9.54E-05
2.0950	2.1000	5.70E-05
2.1000	2.1050	6.42E-05
2.1050	2.1100	6.35E-05
2.1100	2.1150	5.11E-05
2.1150	2.1200	9.51E-05
2.1200	2.1250	4.52E-05
2.1250	2.1300	8.84E-05
2.1300	2.1350	7.62E-05
2.1350	2.1400	2.58E-05
2.1400	2.1450	6.98E-05
2.1450	2.1500	6.96E-05
2.1500	2.1550	6.99E-05
2.1550	2.1600	3.81E-05
2.1600	2.1650	7.00E-05
2.1650	2.1700	5.08E-05
2.1700	2.1750	5.13E-05
2.1750	2.1800	5.71E-05
2.1800	2.1850	4.52E-05
2.1850	2.1900	6.38E-05
2.1900	2.1950	6.33E-05
2.1950	2.2000	6.34E-05
2.2000	2.2050	6.32E-05
2.2050	2.2100	6.37E-05
2.2100	2.2150	6.33E-05
2.2150	2.2200	7.01E-05
2.2200	2.2250	2.59E-05
2.2250	2.2300	1.96E-05
2.2300	2.2350	5.10E-05
2.2350	2.2400	5.72E-05
2.2400	2.2450	4.46E-05
2.2450	2.2500	5.75E-05
2.2500	2.2550	5.78E-05
2.2550	2.2600	3.21E-05
2.2600	2.2650	6.32E-05
2.2650	2.2700	6.36E-05
2.2700	2.2750	3.20E-05
2.2750	2.2800	2.57E-05
2.2800	2.2850	2.58E-05
2.2850	2.2900	6.97E-05
2.2900	2.2950	3.20E-05
2.2950	2.3000	5.10E-05
2.3000	2.3050	3.19E-05
2.3050	2.3100	2.57E-05
2.3100	2.3150	2.56E-05
2.3150	2.3200	4.43E-05
2.3200	2.3250	3.21E-05
2.3250	2.3300	7.60E-05
2.3300	2.3350	5.08E-05
2.3350	2.3400	3.26E-05
2.3400	2.3450	3.81E-05
2.3450	2.3500	6.91E-06
2.3500	2.3550	2.56E-05
2.3550	2.3600	6.31E-05
2.3600	2.3650	3.19E-05
2.3650	2.3700	3.22E-05
2.3700	2.3750	1.94E-05
2.3750	2.3800	3.21E-05
2.3800	2.3850	3.92E-05
2.3850	2.3900	1.98E-05
2.3900	2.3950	3.83E-05
2.3950	2.4000	4.44E-05
2.4000	2.4050	3.17E-05
2.4050	2.4100	6.74E-06
2.4100	2.4150	2.58E-05
2.4150	2.4200	2.57E-05
2.4200	2.4250	4.45E-05
2.4250	2.4300	2.54E-05
2.4300	2.4350	3.18E-05
2.4350	2.4400	1.92E-05
2.4400	2.4450	5.68E-05
2.4450	2.4500	3.80E-05
2.4500	2.4550	6.89E-06
2.4550	2.4600	2.56E-05
2.4600	2.4650	3.81E-05
2.4650	2.4700	3.81E-05
2.4700	2.4750	3.16E-05
2.4750	2.4800	2.57E-05
2.4800	2.4850	3.20E-05
2.4850	2.4900	3.18E-05
2.4900	2.4950	1.93E-05
2.4950	2.5000	2.55E-05
2.5000	2.5050	1.31E-05
2.5050	2.5100	1.92E-05
2.5100	2.5150	2.54E-05
2.5150	2.5200	5.11E-05
2.5200	2.5250	3.22E-05
2.5250	2.5300	5.10E-05
2.5300	2.5350	3.19E-05
2.5350	2.5400	1.33E-05
2.5400	2.5450	1.90E-05
2.5450	2.5500	2.55E-05
2.5500	2.5550	3.18E-05
2.5550	2.5600	3.20E-05
2.5600	2.5650	2.55E-05
2.5650	2.5700	1.30E-05
2.5700	2.5750	3.19E-05
2.5750	2.5800	2.55E-05
2.5800	2.5850	2.54E-05
2.5850	2.5900	2.55E-05
2.5900	2.5950	2.55E-05
2.5950	2.6000	3.81E-05
2.6000	2.6050	1.92E-05
2.6050	2.6100	1.29E-05
2.6100	2.6150	6.60E-06
2.6150	2.6200	1.30E-05
2.6200	2.6250	1.30E-05
2.6250	2.6300	3.17E-05
2.6300	2.6350	2.55E-05
2.6350	2.6400	5.67E-05
2.6400	2.6450	1.30E-05
2.6450	2.6500	3.79E-05
2.6500	2.6550	2.55E-05
2.6550	2.6600	2.54E-05
2.6600	2.6650	1.91E-05
2.6650	2.6700	1.28E-05
2.6700	2.6750	1.93E-05
2.6750	2.6800	2.56E-05
2.6800	2.6850	2.54E-05
2.6850	2.6900	1.92E-05
2.6900	2.6950	2.55E-05
2.6950	2.7000	5.07E-05
2.7000	2.7050	6.61E-06
2.7050	2.7100	2.55E-05
2.7100	2.7150	1.28E-05
2.7150	2.7200	1.91E-05
2.7200	2.7250	4.43E-05
2.7250	2.7300	1.92E-05
2.7300	2.7350	1.31E-05
2.7350	2.7400	6.57E-06
2.7400	2.7450	1.91E-05
2.7450	2.7500	6.60E-06
2.7500	2.7550	3.19E-05
2.7550	2.7600	1.28E-05
2.7600	2.7650	6.67E-06
2.7650	2.7700	1.92E-05
2.7700	2.7750	6.42E-06
2.7750	2.7800	1.29E-05
2.7800	2.7850	2.56E-05
2.7850	2.7900	1.28E-05
2.7900	2.7950	1.91E-05
2.7950	2.8000	1.31E-05
2.8000	2.8050	3.09E-07
2.8050	2.8100	3.17E-05
2.8100	2.8150	1.91E-05
2.8150	2.8200	1.91E-05
2.8200	2.8250	6.43E-06
2.8250	2.8300	1.28E-05
2.8300	2.8350	6.43E-06
2.8350	2.8400	3.00E-07
2.8400	2.8450	2.59E-05
2.8450	2.8500	1.93E-05
2.8500	2.8550	2.53E-05
2.8550	2.8600	3.00E-07
2.8600	2.8650	1.29E-05
2.8650	2.8700	6.85E-06
2.8700	2.8750	1.29E-05
2.8750	2.8800	1.29E-05
2.8800	2.8850	1.30E-05
2.8850	2.8900	1.97E-05
2.8900	2.8950	6.59E-06
2.8950	2.9000	1.28E-05
2.9000	2.9050	6.55E-06
2.9050	2.9100	3.17E-05
2.9100	2.9150	1.93E-05
2.9150	2.9200	1.94E-05
2.9200	2.9250	1.32E-05
2.9250	2.9300	1.33E-05
2.9300	2.9350	7.64E-07
2.9350	2.9400	1.45E-05
2.9400	2.9450	1.41E-05
2.9450	2.9500	1.44E-05
2.9500	2.9550	1.51E-05
2.9550	2.9600	2.24E-05
2.9600	2.9650	1.80E-05
2.9650	2.9700	1.30E-05
2.9700	2.9750	2.32E-05
2.9750	2.9800	1.42E-05
2.9800	2.9850	2.52E-05
2.9850	2.9900	3.24E-05
2.9900	2.9950	4.08E-05
2.9950	3.0000	6.59E-05
3.0000	3.0050	6.74E-05
3.0050	3.0100	9.51E-05
3.0100	3.0150	0.000115257
3.0150	3.0200	0.000139961
3.0200	3.0250	0.000157029
3.0250	3.0300	0.000210203
3.0300	3.0350	0.00024141
3.0350	3.0400	0.000276242
3.0400	3.0450	0.000314092
3.0450	3.0500	0.000360458
3.0500	3.0550	0.000419376
3.0550	3.0600	0.00046907
3.0600	3.0650	0.000533892
3.0650	3.0700	0.000564299
3.0700	3.0750	0.000620678
3.0750	3.0800	0.000654096
3.0800	3.0850	0.000687235
3.0850	3.0900	0.000710796
3.0900	3.0950	0.000723674
3.0950	3.1000	0.000724132
3.1000	3.1050	0.000723537
3.1050	3.1100	0.000704033
3.1100	3.1150	0.000677149
3.1150	3.1200	0.000635274
3.1200	3.1250	0.000585992
3.1250	3.1300	0.00055136
3.1300	3.1350	0.000506087
3.1350	3.1400	0.000450068
3.1400	3.1450	0.000398322
3.1450	3.1500	0.00035446
3.1500	3.1550	0.000297272
3.1550	3.1600	0.00024589
3.1600	3.1650	0.000197392
3.1650	3.1700	0.000167366
3.1700	3.1750	0.000139666
3.1750	3.1800	0.000101929
3.1800	3.1850	8.19E-05
3.1850	3.1900	7.28E-05
3.1900	3.1950	7.27E-05
3.1950	3.2000	4.00E-05
3.2000	3.2050	3.86E-05
3.2050	3.2100	3.08E-05
3.2100	3.2150	1.88E-05
3.2150	3.2200	1.56E-05
3.2200	3.2250	1.92E-05
3.2250	3.2300	1.08E-05
3.2300	3.2350	1.58E-05
3.2350	3.2400	1.43E-05
3.2400	3.2450	7.85E-06
3.2450	3.2500	7.00E-06
3.2500	3.2550	7.00E-06
3.2550	3.2600	1.30E-05
3.2600	3.2650	6.38E-07
3.2650	3.2700	1.38E-05
3.2700	3.2750	3.69E-07
3.2750	3.2800	2.68E-07
3.2800	3.2850	6.49E-06
3.2850	3.2900	6.49E-06
3.2900	3.2950	1.75E-07
3.2950	3.3000	1.34E-07
3.3000	3.3050	6.54E-06
3.3050	3.3100	6.43E-06
3.3100	3.3150	6.63E-06
3.3150	3.3200	4.72E-08
3.3200	3.3250	3.57E-07
3.3250	3.3300	1.26E-05
3.3300	3.3350	6.38E-06
3.3350	3.3400	2.54E-05
3.3400	3.3450	1.27E-05
3.3450	3.3500	2.48E-07
3.3500	3.3550	6.52E-06
3.3550	3.3600	6.42E-06
3.3600	3.3650	2.46E-07
3.3650	3.3700	1.91E-07
3.3700	3.3750	6.43E-06
3.3750	3.3800	2.92E-07
3.3800	3.3850	1.26E-05
3.3850	3.3900	1.93E-07
3.3900	3.3950	1.89E-05
3.3950	3.4000	7.64E-08
3.4000	3.4050	2.53E-05
3.4050	3.4100	9.70E-08
3.4100	3.4150	6.41E-06
3.4150	3.4200	6.33E-06
3.4200	3.4250	6.40E-06
3.4250	3.4300	1.14E-07
3.4300	3.4350	1.15E-07
3.4350	3.4400	1.77E-07
3.4400	3.4450	1.26E-05
3.4450	3.4500	1.27E-05
3.4500	3.4550	2.29E-07
3.4550	3.4600	6.54E-06
3.4600	3.4650	6.41E-06
3.4650	3.4700	1.49E-07
3.4700	3.4750	2.52E-05
3.4750	3.4800	2.47E-07
3.4800	3.4850	6.37E-06
3.4850	3.4900	2.42E-07
3.4900	3.4950	6.41E-06
3.4950	3.5000	7.67E-08
3.5000	3.5050	1.60E-07
3.5050	3.5100	6.55E-06
3.5100	3.5150	2.39E-07
3.5150	3.5200	6.58E-06
3.5200	3.5250	1.27E-05
3.5250	3.5300	2.08E-07
3.5300	3.5350	6.66E-06
3.5350	3.5400	4.63E-07
3.5400	3.5450	6.71E-06
3.5450	3.5500	1.33E-05
3.5500	3.5550	7.98E-07
3.5550	3.5600	7.09E-06
3.5600	3.5650	9.45E-07
3.5650	3.5700	1.31E-06
3.5700	3.5750	1.43E-06
3.5750	3.5800	1.64E-06
3.5800	3.5850	8.09E-06
3.5850	3.5900	8.59E-06
3.5900	3.5950	2.55E-06
3.5950	3.6000	9.18E-06
3.6000	3.6050	3.24E-06
3.6050	3.6100	3.69E-06
3.6100	3.6150	1.04E-05
3.6150	3.6200	4.48E-06
3.6200	3.6250	1.14E-05
3.6250	3.6300	5.65E-06
3.6300	3.6350	1.24E-05
3.6350	3.6400	1.26E-05
3.6400	3.6450	6.95E-06
3.6450	3.6500	7.38E-06
3.6500	3.6550	1.43E-05
3.6550	3.6600	8.99E-06
3.6600	3.6650	8.55E-06
3.6650	3.6700	2.76E-05
3.6700	3.6750	1.53E-05
3.6750	3.6800	9.23E-06
3.6800	3.6850	9.04E-06
3.6850	3.6900	9.19E-06
3.6900	3.6950	1.53E-05
3.6950	3.7000	1.53E-05
3.7000	3.7050	2.12E-05
3.7050	3.7100	8.49E-06
3.7100	3.7150	8.07E-06
3.7150	3.7200	7.61E-06
3.7200	3.7250	1.36E-05
3.7250	3.7300	6.73E-06
3.7300	3.7350	6.36E-06
3.7350	3.7400	5.80E-06
3.7400	3.7450	1.18E-05
3.7450	3.7500	5.02E-06
3.7500	3.7550	1.06E-05
3.7550	3.7600	1.02E-05
3.7600	3.7650	3.58E-06
3.7650	3.7700	3.20E-06
3.7700	3.7750	2.70E-06
3.7750	3.7800	2.32E-06
3.7800	3.7850	1.97E-06
3.7850	3.7900	1.77E-06
3.7900	3.7950	7.77E-06
3.7950	3.8000	1.38E-05
3.8000	3.8050	9.28E-07
3.8050	3.8100	9.79E-07
3.8100	3.8150	1.32E-05
3.8150	3.8200	5.93E-07
3.8200	3.8250	4.79E-07
3.8250	3.8300	6.68E-06
3.8300	3.8350	6.62E-06
3.8350	3.8400	3.77E-07
3.8400	3.8450	1.29E-05
3.8450	3.8500	1.29E-05
3.8500	3.8550	2.13E-07
3.8550	3.8600	2.37E-07
3.8600	3.8650	1.29E-07
3.8650	3.8700	6.38E-06
3.8700	3.8750	6.09E-07
3.8750	3.8800	6.34E-06
3.8800	3.8850	9.90E-08
3.8850	3.8900	3.88E-08
3.8900	3.8950	4.38E-08
3.8950	3.9000	6.36E-06
3.9000	3.9050	6.22E-08
3.9050	3.9100	5.55E-08
3.9100	3.9150	3.28E-09
3.9150	3.9200	4.15E-08
3.9200	3.9250	6.34E-06
3.9250	3.9300	1.15E-07
3.9300	3.9350	1.24E-09
3.9350	3.9400	5.46E-08
3.9400	3.9450	2.92E-07
3.9450	3.9500	1.04E-07
3.9500	3.9550	1.05E-07
3.9550	3.9600	6.32E-06
3.9600	3.9650	6.31E-06
3.9650	3.9700	6.41E-06
3.9700	3.9750	6.37E-06
3.9750	3.9800	9.44E-08
3.9800	3.9850	6.28E-06
3.9850	3.9900	6.42E-06
3.9900	3.9950	6.45E-06
3.9950	4.0000	6.49E-08
***
0.0000	0.0050	0.117497
0.0050	0.0100	0.13851
0.0100	0.0150	0.0830364
0.0150	0.0200	0.0468314
0.0200	0.0250	0.0303674
0.0250	0.0300	0.0222979
0.0300	0.0350	0.017789
0.0350	0.0400	0.014809
0.0400	0.0450	0.0123828
0.0450	0.0500	0.0105045
0.0500	0.0550	0.00893941
0.0550	0.0600	0.00774202
0.0600	0.0650	0.00669873
0.0650	0.0700	0.00581036
0.0700	0.0750	0.00501873
0.0750	0.0800	0.00424371
0.0800	0.0850	0.00361792
0.0850	0.0900	0.00301639
0.0900	0.0950	0.0025888
0.0950	0.1000	0.00214695
0.1000	0.1050	0.00174242
0.1050	0.1100	0.00142309
0.1100	0.1150	0.00114833
0.1150	0.1200	0.000917407
0.1200	0.1250	0.000730546
0.1250	0.1300	0.000634204
0.1300	0.1350	0.000552002
0.1350	0.1400	0.000510478
0.1400	0.1450	0.000496956
0.1450	0.1500	0.000473558
0.1500	0.1550	0.000446305
0.1550	0.1600	0.000443427
0.1600	0.1650	0.000425763
0.1650	0.1700	0.000404345
0.1700	0.1750	0.000391018
0.1750	0.1800	0.000390319
0.1800	0.1850	0.000357957
0.1850	0.1900	0.000350444
0.1900	0.1950	0.000337852
0.1950	0.2000	0.000332484
0.2000	0.2050	0.000316831
0.2050	0.2100	0.000300025
0.2100	0.2150	0.000287593
0.2150	0.2200	0.000283493
0.2200	0.2250	0.000278475
0.2250	0.2300	0.000277491
0.2300	0.2350	0.000254971
0.2350	0.2400	0.000249113
0.2400	0.2450	0.000244346
0.2450	0.2500	0.000241569
0.2500	0.2550	0.000231113
0.2550	0.2600	0.000220497
0.2600	0.2650	0.000220626
0.2650	0.2700	0.000215591
0.2700	0.2750	0.00020025
0.2750	0.2800	0.000195442
0.2800	0.2850	0.000196649
0.2850	0.2900	0.000193659
0.2900	0.2950	0.00018937
0.2950	0.3000	0.000177853
0.3000	0.3050	0.000178004
0.3050	0.3100	0.000171683
0.3100	0.3150	0.000159851
0.3150	0.3200	0.000167185
0.3200	0.3250	0.00015363
0.3250	0.3300	0.000151146
0.3300	0.3350	0.000143643
0.3350	0.3400	0.000147242
0.3400	0.3450	0.000135387
0.3450	0.3500	0.000131335
0.3500	0.3550	0.000137526
0.3550	0.3600	0.000129317
0.3600	0.3650	0.000120246
0.3650	0.3700	0.000111499
0.3700	0.3750	0.000114685
0.3750	0.3800	0.000124479
0.3800	0.3850	0.000113461
0.3850	0.3900	0.000106922
0.3900	0.3950	0.000101352
0.3950	0.4000	1.00E-04
0.4000	0.4050	0.000102235
0.4050	0.4100	9.52E-05
0.4100	0.4150	8.95E-05
0.4150	0.4200	8.83E-05
0.4200	0.4250	8.19E-05
0.4250	0.4300	8.06E-05
0.4300	0.4350	8.24E-05
0.4350	0.4400	7.39E-05
0.4400	0.4450	7.86E-05
0.4450	0.4500	7.07E-05
0.4500	0.4550	7.40E-05
0.4550	0.4600	7.06E-05
0.4600	0.4650	7.24E-05
0.4650	0.4700	6.75E-05
0.4700	0.4750	6.13E-05
0.4750	0.4800	5.53E-05
0.4800	0.4850	5.82E-05
0.4850	0.4900	5.84E-05
0.4900	0.4950	5.81E-05
0.4950	0.5000	4.80E-05
0.5000	0.5050	5.29E-05
0.5050	0.5100	5.21E-05
0.5100	0.5150	5.11E-05
0.5150	0.5200	4.84E-05
0.5200	0.5250	5.71E-05
0.5250	0.5300	4.96E-05
0.5300	0.5350	4.90E-05
0.5350	0.5400	4.59E-05
0.5400	0.5450	4.29E-05
0.5450	0.5500	4.45E-05
0.5500	0.5550	4.70E-05
0.5550	0.5600	4.56E-05
0.5600	0.5650	5.25E-05
0.5650	0.5700	4.48E-05
0.5700	0.5750	4.56E-05
0.5750	0.5800	5.56E-05
0.5800	0.5850	5.03E-05
0.5850	0.5900	4.91E-05
0.5900	0.5950	4.87E-05
0.5950	0.6000	5.93E-05
0.6000	0.6050	5.47E-05
0.6050	0.6100	4.70E-05
0.6100	0.6150	4.98E-05
0.6150	0.6200	5.31E-05
0.6200	0.6250	5.34E-05
0.6250	0.6300	4.88E-05
0.6300	0.6350	4.83E-05
0.6350	0.6400	4.78E-05
0.6400	0.6450	5.34E-05
0.6450	0.6500	4.44E-05
0.6500	0.6550	4.43E-05
0.6550	0.6600	4.78E-05
0.6600	0.6650	5.14E-05
0.6650	0.6700	5.47E-05
0.6700	0.6750	4.66E-05
0.6750	0.6800	4.99E-05
0.6800	0.6850	5.51E-05
0.6850	0.6900	5.49E-05
0.6900	0.6950	5.85E-05
0.6950	0.7000	5.83E-05
0.7000	0.7050	6.09E-05
0.7050	0.7100	6.27E-05
0.7100	0.7150	5.96E-05
0.7150	0.7200	6.26E-05
0.7200	0.7250	6.88E-05
0.7250	0.7300	7.48E-05
0.7300	0.7350	7.10E-05
0.7350	0.7400	8.14E-05
0.7400	0.7450	8.60E-05
0.7450	0.7500	8.74E-05
0.7500	0.7550	0.000104551
0.7550	0.7600	0.000115678
0.7600	0.7650	0.00016079
0.7650	0.7700	0.000229353
0.7700	0.7750	0.000313603
0.7750	0.7800	0.000387064
0.7800	0.7850	0.000408198
0.7850	0.7900	0.000360101
0.7900	0.7950	0.000276711
0.7950	0.8000	0.000188073
0.8000	0.8050	0.00012702
0.8050	0.8100	8.72E-05
0.8100	0.8150	6.63E-05
0.8150	0.8200	4.80E-05
0.8200	0.8250	4.57E-05
0.8250	0.8300	4.17E-05
0.8300	0.8350	4.33E-05
0.8350	0.8400	3.32E-05
0.8400	0.8450	2.75E-05
0.8450	0.8500	2.68E-05
0.8500	0.8550	2.48E-05
0.8550	0.8600	2.87E-05
0.8600	0.8650	2.76E-05
0.8650	0.8700	2.33E-05
0.8700	0.8750	2.78E-05
0.8750	0.8800	2.58E-05
0.8800	0.8850	2.14E-05
0.8850	0.8900	2.18E-05
0.8900	0.8950	1.90E-05
0.8950	0.9000	2.16E-05
0.9000	0.9050	1.73E-05
0.9050	0.9100	1.76E-05
0.9100	0.9150	1.87E-05
0.9150	0.9200	2.13E-05
0.9200	0.9250	2.07E-05
0.9250	0.9300	1.44E-05
0.9300	0.9350	2.00E-05
0.9350	0.9400	2.11E-05
0.9400	0.9450	1.19E-05
0.9450	0.9500	1.99E-05
0.9500	0.9550	1.63E-05
0.9550	0.9600	2.21E-05
0.9600	0.9650	2.19E-05
0.9650	0.9700	2.00E-05
0.9700	0.9750	2.14E-05
0.9750	0.9800	2.17E-05
0.9800	0.9850	2.33E-05
0.9850	0.9900	3.17E-05
0.9900	0.9950	5.84E-05
0.9950	1.0000	8.48E-05
1.0000	1.0050	0.000149536
1.0050	1.0100	0.000229454
1.0100	1.0150	0.000304997
1.0150	1.0200	0.000353398
1.0200	1.0250	0.000339802
1.0250	1.0300	0.000283813
1.0300	1.0350	0.000199183
1.0350	1.0400	0.000130645
1.0400	1.0450	7.48E-05
1.0450	1.0500	3.91E-05
1.0500	1.0550	2.52E-05
1.0550	1.0600	1.97E-05
1.0600	1.0650	2.28E-05
1.0650	1.0700	1.73E-05
1.0700	1.0750	1.47E-05
1.0750	1.0800	1.61E-05
1.0800	1.0850	1.29E-05
1.0850	1.0900	1.32E-05
1.0900	1.0950	1.42E-05
1.0950	1.1000	1.14E-05
1.1000	1.1050	1.83E-05
1.1050	1.1100	1.48E-05
1.1100	1.1150	9.86E-06
1.1150	1.1200	6.35E-06
1.1200	1.1250	8.91E-06
1.1250	1.1300	6.32E-06
1.1300	1.1350	1.69E-05
1.1350	1.1400	1.11E-05
1.1400	1.1450	8.03E-06
1.1450	1.1500	1.05E-05
1.1500	1.1550	9.07E-06
1.1550	1.1600	8.37E-06
1.1600	1.1650	9.01E-06
1.1650	1.1700	9.60E-06
1.1700	1.1750	1.28E-05
1.1750	1.1800	1.14E-05
1.1800	1.1850	7.65E-06
1.1850	1.1900	1.25E-05
1.1900	1.1950	1.07E-05
1.1950	1.2000	8.13E-06
1.2000	1.2050	8.11E-06
1.2050	1.2100	9.32E-06
1.2100	1.2150	6.18E-06
1.2150	1.2200	9.28E-06
1.2200	1.2250	9.34E-06
1.2250	1.2300	6.77E-06
1.2300	1.2350	6.75E-06
1.2350	1.2400	9.22E-06
1.2400	1.2450	6.09E-06
1.2450	1.2500	7.35E-06
1.2500	1.2550	6.70E-06
1.2550	1.2600	9.84E-06
1.2600	1.2650	7.29E-06
1.2650	1.2700	9.19E-06
1.2700	1.2750	8.56E-06
1.2750	1.2800	7.90E-06
1.2800	1.2850	3.47E-06
1.2850	1.2900	5.34E-06
1.2900	1.2950	2.83E-06
1.2950	1.3000	8.44E-06
1.3000	1.3050	6.68E-06
1.3050	1.3100	9.77E-06
1.3100	1.3150	1.10E-05
1.3150	1.3200	5.33E-06
1.3200	1.3250	7.77E-06
1.3250	1.3300	7.84E-06
1.3300	1.3350	2.78E-06
1.3350	1.3400	4.65E-06
1.3400	1.3450	8.34E-06
1.3450	1.3500	5.87E-06
1.3500	1.3550	9.63E-06
1.3550	1.3600	6.54E-06
1.3600	1.3650	8.98E-06
1.3650	1.3700	4.00E-06
1.3700	1.3750	6.47E-06
1.3750	1.3800	7.09E-06
1.3800	1.3850	6.52E-06
1.3850	1.3900	7.72E-06
1.3900	1.3950	7.09E-06
1.3950	1.4000	4.57E-06
1.4000	1.4050	8.38E-06
1.4050	1.4100	4.56E-06
1.4100	1.4150	7.07E-06
1.4150	1.4200	7.11E-06
1.4200	1.4250	3.96E-06
1.4250	1.4300	5.19E-06
1.4300	1.4350	7.69E-06
1.4350	1.4400	3.91E-06
1.4400	1.4450	7.06E-06
1.4450	1.4500	6.44E-06
1.4500	1.4550	3.95E-06
1.4550	1.4600	3.28E-06
1.4600	1.4650	5.80E-06
1.4650	1.4700	8.94E-06
1.4700	1.4750	8.92E-06
1.4750	1.4800	5.14E-06
1.4800	1.4850	5.14E-06
1.4850	1.4900	8.31E-06
1.4900	1.4950	4.51E-06
1.4950	1.5000	5.79E-06
1.5000	1.5050	3.89E-06
1.5050	1.5100	5.12E-06
1.5100	1.5150	3.29E-06
1.5150	1.5200	6.43E-06
1.5200	1.5250	3.25E-06
1.5250	1.5300	3.87E-06
1.5300	1.5350	1.01E-05
1.5350	1.5400	4.50E-06
1.5400	1.5450	2.59E-06
1.5450	1.5500	3.28E-06
1.5500	1.5550	3.23E-06
1.5550	1.5600	4.51E-06
1.5600	1.5650	4.47E-06
1.5650	1.5700	5.08E-06
1.5700	1.5750	3.22E-06
1.5750	1.5800	8.27E-06
1.5800	1.5850	3.83E-06
1.5850	1.5900	2.59E-06
1.5900	1.5950	5.11E-06
1.5950	1.6000	5.75E-06
1.6000	1.6050	5.10E-06
1.6050	1.6100	6.35E-06
1.6100	1.6150	5.11E-06
1.6150	1.6200	6.97E-06
1.6200	1.6250	3.84E-06
1.6250	1.6300	4.45E-06
1.6300	1.6350	6.36E-06
1.6350	1.6400	3.86E-06
1.6400	1.6450	4.48E-06
1.6450	1.6500	5.10E-06
1.6500	1.6550	4.46E-06
1.6550	1.6600	3.18E-06
1.6600	1.6650	4.45E-06
1.6650	1.6700	2.61E-06
1.6700	1.6750	3.23E-06
1.6750	1.6800	4.46E-06
1.6800	1.6850	1.93E-06
1.6850	1.6900	5.71E-06
1.6900	1.6950	5.73E-06
1.6950	1.7000	6.96E-06
1.7000	1.7050	2.58E-06
1.7050	1.7100	3.20E-06
1.7100	1.7150	2.56E-06
1.7150	1.7200	6.97E-06
1.7200	1.7250	5.69E-06
1.7250	1.7300	3.81E-06
1.7300	1.7350	3.20E-06
1.7350	1.7400	3.18E-06
1.7400	1.7450	5.70E-06
1.7450	1.7500	3.81E-06
1.7500	1.7550	3.18E-06
1.7550	1.7600	1.93E-06
1.7600	1.7650	5.09E-06
1.7650	1.7700	2.56E-06
1.7700	1.7750	3.81E-06
1.7750	1.7800	1.94E-06
1.7800	1.7850	3.21E-06
1.7850	1.7900	3.80E-06
1.7900	1.7950	1.32E-06
1.7950	1.8000	2.59E-06
1.8000	1.8050	2.54E-06
1.8050	1.8100	3.19E-06
1.8100	1.8150	1.94E-06
1.8150	1.8200	1.30E-06
1.8200	1.8250	2.57E-06
1.8250	1.8300	5.71E-06
1.8300	1.8350	1.93E-06
1.8350	1.8400	3.19E-06
1.8400	1.8450	3.81E-06
1.8450	1.8500	4.43E-06
1.8500	1.8550	2.58E-06
1.8550	1.8600	2.53E-06
1.8600	1.8650	3.18E-06
1.8650	1.8700	2.54E-06
1.8700	1.8750	3.18E-06
1.8750	1.8800	2.54E-06
1.8800	1.8850	1.91E-06
1.8850	1.8900	1.29E-06
1.8900	1.8950	1.95E-06
1.8950	1.9000	3.79E-06
1.9000	1.9050	3.81E-06
1.9050	1.9100	1.92E-06
1.9100	1.9150	2.55E-06
1.9150	1.9200	5.69E-06
1.9200	1.9250	4.43E-06
1.9250	1.9300	5.70E-06
1.9300	1.9350	4.24E-08
1.9350	1.9400	2.54E-06
1.9400	1.9450	1.91E-06
1.9450	1.9500	1.91E-06
1.9500	1.9550	1.27E-06
1.9550	1.9600	1.92E-06
1.9600	1.9650	5.06E-06
1.9650	1.9700	1.92E-06
1.9700	1.9750	3.80E-06
1.9750	1.9800	1.28E-06
1.9800	1.9850	1.28E-06
1.9850	1.9900	4.42E-06
1.9900	1.9950	3.79E-06
1.9950	2.0000	1.29E-06
2.0000	2.0050	2.54E-06
2.0050	2.0100	3.17E-06
2.0100	2.0150	6.65E-07
2.0150	2.0200	2.53E-06
2.0200	2.0250	1.28E-06
2.0250	2.0300	1.91E-06
2.0300	2.0350	3.79E-06
2.0350	2.0400	3.16E-06
2.0400	2.0450	3.79E-06
2.0450	2.0500	1.91E-06
2.0500	2.0550	6.42E-07
2.0550	2.0600	1.91E-06
2.0600	2.0650	4.43E-06
2.0650	2.0700	2.53E-06
2.0700	2.0750	4.43E-06
2.0750	2.0800	3.78E-06
2.0800	2.0850	3.80E-06
2.0850	2.0900	3.17E-06
2.0900	2.0950	5.05E-06
2.0950	2.1000	1.90E-06
2.1000	2.1050	3.79E-06
2.1050	2.1100	2.54E-06
2.1100	2.1150	1.91E-06
2.1150	2.1200	1.28E-06
2.1200	2.1250	1.70E-08
2.1250	2.1300	3.15E-06
2.1300	2.1350	3.80E-06
2.1350	2.1400	1.90E-06
2.1400	2.1450	5.67E-06
2.1450	2.1500	3.17E-06
2.1500	2.1550	1.91E-06
2.1550	2.1600	1.92E-06
2.1600	2.1650	1.27E-06
2.1650	2.1700	1.90E-06
2.1700	2.1750	1.28E-06
2.1750	2.1800	3.79E-06
2.1800	2.1850	2.53E-06
2.1850	2.1900	3.15E-06
2.1900	2.1950	3.16E-06
2.1950	2.2000	1.27E-06
2.2000	2.2050	1.90E-06
2.2050	2.2100	1.92E-06
2.2100	2.2150	1.28E-06
2.2150	2.2200	2.53E-06
2.2200	2.2250	1.91E-06
2.2250	2.2300	1.27E-06
2.2300	2.2350	1.91E-06
2.2350	2.2400	1.91E-06
2.2400	2.2450	6.44E-07
2.2450	2.2500	1.90E-06
2.2500	2.2550	6.47E-07
2.2550	2.2600	6.73E-07
2.2600	2.2650	3.16E-06
2.2650	2.2700	3.16E-06
2.2700	2.2750	2.54E-06
2.2750	2.2800	1.27E-06
2.2800	2.2850	1.90E-06
2.2850	2.2900	1.91E-06
2.2900	2.2950	1.90E-06
2.2950	2.3000	1.91E-06
2.3000	2.3050	1.89E-06
2.3050	2.3100	2.53E-06
2.3100	2.3150	1.90E-06
2.3150	2.3200	1.89E-06
2.3200	2.3250	6.58E-07
2.3250	2.3300	1.27E-06
2.3300	2.3350	1.28E-06
2.3350	2.3400	1.27E-06
2.3400	2.3450	3.78E-06
2.3450	2.3500	1.31E-08
2.3500	2.3550	1.89E-06
2.3550	2.3600	6.40E-07
2.3600	2.3650	1.45E-08
2.3650	2.3700	1.27E-06
2.3700	2.3750	3.67E-08
2.3750	2.3800	1.27E-06
2.3800	2.3850	1.90E-06
2.3850	2.3900	2.53E-06
2.3900	2.3950	1.89E-06
2.3950	2.4000	2.46E-08
2.4000	2.4050	3.14E-06
2.4050	2.4100	1.89E-06
2.4100	2.4150	1.27E-06
2.4150	2.4200	1.26E-06
2.4200	2.4250	1.27E-06
2.4250	2.4300	6.40E-07
2.4300	2.4350	3.15E-06
2.4350	2.4400	1.90E-06
2.4400	2.4450	6.37E-07
2.4450	2.4500	1.90E-06
2.4500	2.4550	6.37E-07
2.4550	2.4600	1.90E-06
2.4600	2.4650	6.43E-07
2.4650	2.4700	1.26E-06
2.4700	2.4750	1.90E-06
2.4750	2.4800	6.39E-07
2.4800	2.4850	1.89E-06
2.4850	2.4900	1.93E-06
2.4900	2.4950	1.90E-06
2.4950	2.5000	1.27E-06
2.5000	2.5050	1.27E-06
2.5050	2.5100	1.90E-06
2.5100	2.5150	1.44E-08
2.5150	2.5200	1.89E-06
2.5200	2.5250	3.15E-06
2.5250	2.5300	1.90E-06
2.5300	2.5350	4.25E-08
2.5350	2.5400	1.90E-06
2.5400	2.5450	1.05E-08
2.5450	2.5500	1.89E-06
2.5500	2.5550	1.26E-06
2.5550	2.5600	6.42E-07
2.5600	2.5650	2.52E-06
2.5650	2.5700	8.48E-09
2.5700	2.5750	1.27E-06
2.5750	2.5800	6.43E-07
2.5800	2.5850	6.37E-07
2.5850	2.5900	2.53E-06
2.5900	2.5950	6.37E-07
2.5950	2.6000	6.34E-07
2.6000	2.6050	6.35E-07
2.6050	2.6100	1.30E-08
2.6100	2.6150	1.26E-06
2.6150	2.6200	6.40E-07
2.6200	2.6250	6.41E-07
2.6250	2.6300	1.26E-06
2.6300	2.6350	9.83E-09
2.6350	2.6400	2.52E-06
2.6400	2.6450	1.28E-06
2.6450	2.6500	1.27E-06
2.6500	2.6550	1.26E-06
2.6550	2.6600	1.89E-06
2.6600	2.6650	7.70E-09
2.6650	2.6700	1.26E-06
2.6700	2.6750	6.42E-07
2.6750	2.6800	6.39E-07
2.6800	2.6850	2.53E-06
2.6850	2.6900	6.38E-07
2.6900	2.6950	1.27E-06
2.6950	2.7000	6.42E-07
2.7000	2.7050	6.34E-07
2.7050	2.7100	6.37E-07
2.7100	2.7150	1.90E-06
2.7150	2.7200	6.34E-07
2.7200	2.7250	6.38E-07
2.7250	2.7300	6.45E-07
2.7300	2.7350	1.89E-06
2.7350	2.7400	7.04E-09
2.7400	2.7450	1.29E-08
2.7450	2.7500	1.13E-08
2.7500	2.7550	1.89E-06
2.7550	2.7600	1.27E-06
2.7600	2.7650	6.38E-07
2.7650	2.7700	1.89E-06
2.7700	2.7750	6.34E-07
2.7750	2.7800	6.39E-07
2.7800	2.7850	1.26E-06
2.7850	2.7900	1.54E-08
2.7900	2.7950	6.32E-07
2.7950	2.8000	4.86E-09
2.8000	2.8050	6.43E-07
2.8050	2.8100	6.40E-07
2.8100	2.8150	2.52E-06
2.8150	2.8200	1.26E-06
2.8200	2.8250	1.27E-06
2.8250	2.8300	1.90E-06
2.8300	2.8350	6.40E-07
2.8350	2.8400	1.26E-06
2.8400	2.8450	6.37E-07
2.8450	2.8500	8.87E-09
2.8500	2.8550	7.90E-09
2.8550	2.8600	1.26E-06
2.8600	2.8650	7.40E-09
2.8650	2.8700	1.67E-08
2.8700	2.8750	7.65E-09
2.8750	2.8800	6.35E-07
2.8800	2.8850	8.09E-09
2.8850	2.8900	1.27E-06
2.8900	2.8950	1.30E-08
2.8950	2.9000	6.42E-07
2.9000	2.9050	1.28E-08
2.9050	2.9100	2.95E-08
2.9100	2.9150	6.73E-07
2.9150	2.9200	6.68E-07
2.9200	2.9250	6.00E-08
2.9250	2.9300	1.36E-06
2.9300	2.9350	7.44E-07
2.9350	2.9400	7.61E-07
2.9400	2.9450	8.48E-07
2.9450	2.9500	9.01E-07
2.9500	2.9550	1.62E-06
2.9550	2.9600	5.11E-07
2.9600	2.9650	7.11E-07
2.9650	2.9700	8.85E-07
2.9700	2.9750	2.51E-06
2.9750	2.9800	2.82E-06
2.9800	2.9850	1.98E-06
2.9850	2.9900	4.60E-06
2.9900	2.9950	4.79E-06
2.9950	3.0000	4.53E-06
3.0000	3.0050	6.19E-06
3.0050	3.0100	6.74E-06
3.0100	3.0150	9.60E-06
3.0150	3.0200	1.09E-05
3.0200	3.0250	1.27E-05
3.0250	3.0300	1.44E-05
3.0300	3.0350	1.80E-05
3.0350	3.0400	2.08E-05
3.0400	3.0450	2.32E-05
3.0450	3.0500	2.67E-05
3.0500	3.0550	2.90E-05
3.0550	3.0600	3.45E-05
3.0600	3.0650	3.59E-05
3.0650	3.0700	3.81E-05
3.0700	3.0750	4.17E-05
3.0750	3.0800	4.33E-05
3.0800	3.0850	4.59E-05
3.0850	3.0900	4.81E-05
3.0900	3.0950	4.81E-05
3.0950	3.1000	5.00E-05
3.1000	3.1050	4.81E-05
3.1050	3.1100	4.83E-05
3.1100	3.1150	4.56E-05
3.1150	3.1200	4.42E-05
3.1200	3.1250	4.14E-05
3.1250	3.1300	3.92E-05
3.1300	3.1350	3.59E-05
3.1350	3.1400	3.21E-05
3.1400	3.1450	2.97E-05
3.1450	3.1500	2.75E-05
3.1500	3.1550	2.32E-05
3.1550	3.1600	1.98E-05
3.1600	3.1650	1.65E-05
3.1650	3.1700	1.36E-05
3.1700	3.1750	1.20E-05
3.1750	3.1800	1.06E-05
3.1800	3.1850	7.51E-06
3.1850	3.1900	6.13E-06
3.1900	3.1950	4.68E-06
3.1950	3.2000	3.62E-06
3.2000	3.2050	3.37E-06
3.2050	3.2100	2.72E-06
3.2100	3.2150	1.52E-06
3.2150	3.2200	1.75E-06
3.2200	3.2250	8.40E-07
3.2250	3.2300	1.84E-06
3.2300	3.2350	4.44E-07
3.2350	3.2400	3.00E-07
3.2400	3.2450	1.86E-07
3.2450	3.2500	7.45E-07
3.2500	3.2550	1.34E-06
3.2550	3.2600	7.02E-07
3.2600	3.2650	4.66E-08
3.2650	3.2700	3.74E-08
3.2700	3.2750	6.60E-07
3.2750	3.2800	6.40E-07
3.2800	3.2850	6.40E-07
3.2850	3.2900	4.12E-09
3.2900	3.2950	4.78E-09
3.2950	3.3000	6.39E-09
3.3000	3.3050	6.39E-07
3.3050	3.3100	6.63E-09
3.3100	3.3150	1.89E-06
3.3150	3.3200	4.00E-09
3.3200	3.3250	2.77E-09
3.3250	3.3300	7.43E-09
3.3300	3.3350	6.88E-09
3.3350	3.3400	8.60E-09
3.3400	3.3450	6.38E-07
3.3450	3.3500	1.38E-08
3.3500	3.3550	6.35E-07
3.3550	3.3600	4.53E-09
3.3600	3.3650	6.35E-07
3.3650	3.3700	6.31E-07
3.3700	3.3750	3.18E-09
3.3750	3.3800	3.71E-09
3.3800	3.3850	5.24E-09
3.3850	3.3900	5.55E-09
3.3900	3.3950	3.60E-09
3.3950	3.4000	2.51E-09
3.4000	3.4050	6.97E-09
3.4050	3.4100	6.32E-07
3.4100	3.4150	6.32E-07
3.4150	3.4200	6.32E-07
3.4200	3.4250	2.48E-09
3.4250	3.4300	8.79E-10
3.4300	3.4350	9.40E-09
3.4350	3.4400	6.36E-07
3.4400	3.4450	1.71E-09
3.4450	3.4500	4.15E-09
3.4500	3.4550	2.46E-09
3.4550	3.4600	6.37E-07
3.4600	3.4650	4.40E-09
3.4650	3.4700	6.30E-07
3.4700	3.4750	2.91E-09
3.4750	3.4800	4.50E-09
3.4800	3.4850	6.43E-07
3.4850	3.4900	1.00E-08
3.4900	3.4950	8.03E-09
3.4950	3.5000	6.36E-07
3.5000	3.5050	1.09E-08
3.5050	3.5100	1.26E-08
3.5100	3.5150	6.45E-07
3.5150	3.5200	1.84E-08
3.5200	3.5250	2.50E-08
3.5250	3.5300	2.84E-08
3.5300	3.5350	3.23E-08
3.5350	3.5400	3.96E-08
3.5400	3.5450	6.74E-07
3.5450	3.5500	6.15E-08
3.5500	3.5550	6.96E-07
3.5550	3.5600	7.60E-08
3.5600	3.5650	7.22E-07
3.5650	3.5700	1.05E-07
3.5700	3.5750	7.52E-07
3.5750	3.5800	1.45E-07
3.5800	3.5850	1.66E-07
3.5850	3.5900	1.44E-06
3.5900	3.5950	2.17E-07
3.5950	3.6000	2.47E-07
3.6000	3.6050	2.76E-07
3.6050	3.6100	3.03E-07
3.6100	3.6150	9.66E-07
3.6150	3.6200	3.75E-07
3.6200	3.6250	4.10E-07
3.6250	3.6300	1.08E-06
3.6300	3.6350	4.81E-07
3.6350	3.6400	5.12E-07
3.6400	3.6450	5.51E-07
3.6450	3.6500	5.89E-07
3.6500	3.6550	6.19E-07
3.6550	3.6600	6.31E-07
3.6600	3.6650	6.64E-07
3.6650	3.6700	1.93E-06
3.6700	3.6750	7.02E-07
3.6750	3.6800	7.11E-07
3.6800	3.6850	1.33E-06
3.6850	3.6900	1.34E-06
3.6900	3.6950	7.10E-07
3.6950	3.7000	1.96E-06
3.7000	3.7050	6.91E-07
3.7050	3.7100	6.67E-07
3.7100	3.7150	6.56E-07
3.7150	3.7200	6.30E-07
3.7200	3.7250	6.08E-07
3.7250	3.7300	5.68E-07
3.7300	3.7350	1.16E-06
3.7350	3.7400	4.97E-07
3.7400	3.7450	4.59E-07
3.7450	3.7500	4.18E-07
3.7500	3.7550	3.83E-07
3.7550	3.7600	3.44E-07
3.7600	3.7650	3.12E-07
3.7650	3.7700	2.76E-07
3.7700	3.7750	2.48E-07
3.7750	3.7800	2.23E-07
3.7800	3.7850	1.91E-07
3.7850	3.7900	1.64E-07
3.7900	3.7950	1.37E-07
3.7950	3.8000	1.25E-07
3.8000	3.8050	7.32E-07
3.8050	3.8100	7.16E-07
3.8100	3.8150	7.08E-08
3.8150	3.8200	5.92E-08
3.8200	3.8250	4.98E-08
3.8250	3.8300	4.23E-08
3.8300	3.8350	3.25E-08
3.8350	3.8400	2.88E-08
3.8400	3.8450	6.51E-07
3.8450	3.8500	1.54E-08
3.8500	3.8550	1.20E-08
3.8550	3.8600	1.07E-08
3.8600	3.8650	8.95E-09
3.8650	3.8700	6.36E-07
3.8700	3.8750	4.00E-09
3.8750	3.8800	7.26E-09
3.8800	3.8850	4.48E-09
3.8850	3.8900	1.48E-09
3.8900	3.8950	3.96E-09
3.8950	3.9000	3.63E-09
3.9000	3.9050	1.33E-09
3.9050	3.9100	7.02E-10
3.9100	3.9150	2.92E-09
3.9150	3.9200	1.57E-09
3.9200	3.9250	2.69E-10
3.9250	3.9300	6.34E-07
3.9300	3.9350	3.39E-09
3.9350	3.9400	1.29E-09
3.9400	3.9450	7.07E-09
3.9450	3.9500	4.03E-11
3.9500	3.9550	1.42E-10
3.9550	3.9600	3.14E-09
3.9600	3.9650	3.99E-09
3.9650	3.9700	2.49E-09
3.9700	3.9750	7.77E-11
3.9750	3.9800	1.20E-09
3.9800	3.9850	2.15E-09
3.9850	3.9900	3.13E-09
3.9900	3.9950	9.76E-10
3.9950	4.0000	1.26E-06
***
0.0000	0.0050	0.00303015
0.0050	0.0100	0.00403721
0.0100	0.0150	0.00275497
0.0150	0.0200	0.00167628
0.0200	0.0250	0.00104712
0.0250	0.0300	0.000738672
0.0300	0.0350	0.000569846
0.0350	0.0400	0.000464231
0.0400	0.0450	0.000387254
0.0450	0.0500	0.000328407
0.0500	0.0550	0.000281673
0.0550	0.0600	0.000239268
0.0600	0.0650	0.00020929
0.0650	0.0700	0.000177109
0.0700	0.0750	0.000156627
0.0750	0.0800	0.000134507
0.0800	0.0850	0.000113528
0.0850	0.0900	9.69E-05
0.0900	0.0950	8.25E-05
0.0950	0.1000	6.85E-05
0.1000	0.1050	5.47E-05
0.1050	0.1100	4.67E-05
0.1100	0.1150	3.71E-05
0.1150	0.1200	2.95E-05
0.1200	0.1250	2.47E-05
0.1250	0.1300	2.08E-05
0.1300	0.1350	1.83E-05
0.1350	0.1400	1.72E-05
0.1400	0.1450	1.62E-05
0.1450	0.1500	1.56E-05
0.1500	0.1550	1.51E-05
0.1550	0.1600	1.43E-05
0.1600	0.1650	1.36E-05
0.1650	0.1700	1.34E-05
0.1700	0.1750	1.28E-05
0.1750	0.1800	1.27E-05
0.1800	0.1850	1.18E-05
0.1850	0.1900	1.18E-05
0.1900	0.1950	1.10E-05
0.1950	0.2000	1.06E-05
0.2000	0.2050	1.03E-05
0.2050	0.2100	9.75E-06
0.2100	0.2150	9.55E-06
0.2150	0.2200	9.48E-06
0.2200	0.2250	9.17E-06
0.2250	0.2300	8.59E-06
0.2300	0.2350	8.18E-06
0.2350	0.2400	8.04E-06
0.2400	0.2450	7.94E-06
0.2450	0.2500	7.61E-06
0.2500	0.2550	7.65E-06
0.2550	0.2600	7.14E-06
0.2600	0.2650	7.30E-06
0.2650	0.2700	6.65E-06
0.2700	0.2750	6.77E-06
0.2750	0.2800	6.46E-06
0.2800	0.2850	6.30E-06
0.2850	0.2900	6.12E-06
0.2900	0.2950	5.97E-06
0.2950	0.3000	5.77E-06
0.3000	0.3050	5.87E-06
0.3050	0.3100	5.45E-06
0.3100	0.3150	5.25E-06
0.3150	0.3200	5.13E-06
0.3200	0.3250	4.84E-06
0.3250	0.3300	5.11E-06
0.3300	0.3350	4.86E-06
0.3350	0.3400	4.57E-06
0.3400	0.3450	4.62E-06
0.3450	0.3500	4.24E-06
0.3500	0.3550	4.28E-06
0.3550	0.3600	4.10E-06
0.3600	0.3650	4.11E-06
0.3650	0.3700	3.94E-06
0.3700	0.3750	3.80E-06
0.3750	0.3800	3.72E-06
0.3800	0.3850	3.49E-06
0.3850	0.3900	3.41E-06
0.3900	0.3950	3.30E-06
0.3950	0.4000	3.33E-06
0.4000	0.4050	3.16E-06
0.4050	0.4100	3.09E-06
0.4100	0.4150	2.97E-06
0.4150	0.4200	2.91E-06
0.4200	0.4250	2.69E-06
0.4250	0.4300	2.70E-06
0.4300	0.4350	2.66E-06
0.4350	0.4400	2.57E-06
0.4400	0.4450	2.43E-06
0.4450	0.4500	2.35E-06
0.4500	0.4550	2.19E-06
0.4550	0.4600	2.13E-06
0.4600	0.4650	2.16E-06
0.4650	0.4700	1.95E-06
0.4700	0.4750	1.89E-06
0.4750	0.4800	2.03E-06
0.4800	0.4850	1.96E-06
0.4850	0.4900	1.80E-06
0.4900	0.4950	1.85E-06
0.4950	0.5000	1.76E-06
0.5000	0.5050	1.68E-06
0.5050	0.5100	1.59E-06
0.5100	0.5150	1.58E-06
0.5150	0.5200	1.54E-06
0.5200	0.5250	1.55E-06
0.5250	0.5300	1.46E-06
0.5300	0.5350	1.42E-06
0.5350	0.5400	1.48E-06
0.5400	0.5450	1.47E-06
0.5450	0.5500	1.46E-06
0.5500	0.5550	1.47E-06
0.5550	0.5600	1.47E-06
0.5600	0.5650	1.48E-06
0.5650	0.5700	1.46E-06
0.5700	0.5750	1.51E-06
0.5750	0.5800	1.55E-06
0.5800	0.5850	1.57E-06
0.5850	0.5900	1.57E-06
0.5900	0.5950	1.57E-06
0.5950	0.6000	1.63E-06
0.6000	0.6050	1.63E-06
0.6050	0.6100	1.66E-06
0.6100	0.6150	1.63E-06
0.6150	0.6200	1.67E-06
0.6200	0.6250	1.63E-06
0.6250	0.6300	1.62E-06
0.6300	0.6350	1.58E-06
0.6350	0.6400	1.57E-06
0.6400	0.6450	1.53E-06
0.6450	0.6500	1.53E-06
0.6500	0.6550	1.64E-06
0.6550	0.6600	1.66E-06
0.6600	0.6650	1.72E-06
0.6650	0.6700	1.76E-06
0.6700	0.6750	1.82E-06
0.6750	0.6800	1.72E-06
0.6800	0.6850	1.81E-06
0.6850	0.6900	1.87E-06
0.6900	0.6950	1.95E-06
0.6950	0.7000	2.04E-06
0.7000	0.7050	2.26E-06
0.7050	0.7100	2.37E-06
0.7100	0.7150	2.49E-06
0.7150	0.7200	2.58E-06
0.7200	0.7250	2.71E-06
0.7250	0.7300	2.66E-06
0.7300	0.7350	2.80E-06
0.7350	0.7400	2.94E-06
0.7400	0.7450	3.17E-06
0.7450	0.7500	3.44E-06
0.7500	0.7550	4.11E-06
0.7550	0.7600	5.06E-06
0.7600	0.7650	6.98E-06
0.7650	0.7700	9.47E-06
0.7700	0.7750	1.24E-05
0.7750	0.7800	1.48E-05
0.7800	0.7850	1.53E-05
0.7850	0.7900	1.40E-05
0.7900	0.7950	1.11E-05
0.7950	0.8000	8.10E-06
0.8000	0.8050	5.62E-06
0.8050	0.8100	3.74E-06
0.8100	0.8150	2.74E-06
0.8150	0.8200	2.06E-06
0.8200	0.8250	1.70E-06
0.8250	0.8300	1.43E-06
0.8300	0.8350	1.30E-06
0.8350	0.8400	1.16E-06
0.8400	0.8450	1.05E-06
0.8450	0.8500	1.00E-06
0.8500	0.8550	8.80E-07
0.8550	0.8600	8.18E-07
0.8600	0.8650	7.69E-07
0.8650	0.8700	7.17E-07
0.8700	0.8750	6.80E-07
0.8750	0.8800	6.13E-07
0.8800	0.8850	5.72E-07
0.8850	0.8900	5.58E-07
0.8900	0.8950	5.33E-07
0.8950	0.9000	5.14E-07
0.9000	0.9050	5.82E-07
0.9050	0.9100	5.66E-07
0.9100	0.9150	5.51E-07
0.9150	0.9200	5.38E-07
0.9200	0.9250	5.27E-07
0.9250	0.9300	5.08E-07
0.9300	0.9350	5.03E-07
0.9350	0.9400	4.96E-07
0.9400	0.9450	4.96E-07
0.9450	0.9500	4.98E-07
0.9500	0.9550	4.39E-07
0.9550	0.9600	4.62E-07
0.9600	0.9650	4.78E-07
0.9650	0.9700	5.24E-07
0.9700	0.9750	5.96E-07
0.9750	0.9800	7.34E-07
0.9800	0.9850	1.04E-06
0.9850	0.9900	1.64E-06
0.9900	0.9950	2.72E-06
0.9950	1.0000	4.31E-06
1.0000	1.0050	6.62E-06
1.0050	1.0100	9.13E-06
1.0100	1.0150	1.12E-05
1.0150	1.0200	1.24E-05
1.0200	1.0250	1.22E-05
1.0250	1.0300	1.06E-05
1.0300	1.0350	8.20E-06
1.0350	1.0400	5.71E-06
1.0400	1.0450	3.58E-06
1.0450	1.0500	2.18E-06
1.0500	1.0550	1.20E-06
1.0550	1.0600	7.31E-07
1.0600	1.0650	4.88E-07
1.0650	1.0700	3.77E-07
1.0700	1.0750	3.10E-07
1.0750	1.0800	4.45E-07
1.0800	1.0850	4.20E-07
1.0850	1.0900	3.97E-07
1.0900	1.0950	3.94E-07
1.0950	1.1000	3.85E-07
1.1000	1.1050	2.97E-07
1.1050	1.1100	2.90E-07
1.1100	1.1150	2.89E-07
1.1150	1.1200	2.84E-07
1.1200	1.1250	2.79E-07
1.1250	1.1300	3.01E-07
1.1300	1.1350	2.97E-07
1.1350	1.1400	2.90E-07
1.1400	1.1450	2.89E-07
1.1450	1.1500	2.87E-07
1.1500	1.1550	2.14E-07
1.1550	1.1600	2.07E-07
1.1600	1.1650	2.07E-07
1.1650	1.1700	2.05E-07
1.1700	1.1750	2.02E-07
1.1750	1.1800	2.29E-07
1.1800	1.1850	2.28E-07
1.1850	1.1900	2.28E-07
1.1900	1.1950	2.24E-07
1.1950	1.2000	2.26E-07
1.2000	1.2050	2.37E-07
1.2050	1.2100	2.34E-07
1.2100	1.2150	2.36E-07
1.2150	1.2200	2.33E-07
1.2200	1.2250	2.33E-07
1.2250	1.2300	1.29E-07
1.2300	1.2350	1.32E-07
1.2350	1.2400	1.30E-07
1.2400	1.2450	1.28E-07
1.2450	1.2500	1.28E-07
1.2500	1.2550	1.66E-07
1.2550	1.2600	1.67E-07
1.2600	1.2650	1.63E-07
1.2650	1.2700	1.64E-07
1.2700	1.2750	1.64E-07
1.2750	1.2800	1.51E-07
1.2800	1.2850	1.50E-07
1.2850	1.2900	1.49E-07
1.2900	1.2950	1.50E-07
1.2950	1.3000	1.49E-07
1.3000	1.3050	1.48E-07
1.3050	1.3100	1.49E-07
1.3100	1.3150	1.50E-07
1.3150	1.3200	1.46E-07
1.3200	1.3250	1.46E-07
1.3250	1.3300	1.36E-07
1.3300	1.3350	1.34E-07
1.3350	1.3400	1.35E-07
1.3400	1.3450	1.33E-07
1.3450	1.3500	1.34E-07
1.3500	1.3550	1.71E-07
1.3550	1.3600	1.71E-07
1.3600	1.3650	1.72E-07
1.3650	1.3700	1.70E-07
1.3700	1.3750	1.71E-07
1.3750	1.3800	1.45E-07
1.3800	1.3850	1.46E-07
1.3850	1.3900	1.45E-07
1.3900	1.3950	1.44E-07
1.3950	1.4000	1.45E-07
1.4000	1.4050	1.82E-07
1.4050	1.4100	1.82E-07
1.4100	1.4150	1.81E-07
1.4150	1.4200	1.82E-07
1.4200	1.4250	1.82E-07
1.4250	1.4300	1.19E-07
1.4300	1.4350	1.18E-07
1.4350	1.4400	1.18E-07
1.4400	1.4450	1.19E-07
1.4450	1.4500	1.17E-07
1.4500	1.4550	1.42E-07
1.4550	1.4600	1.44E-07
1.4600	1.4650	1.42E-07
1.4650	1.4700	1.43E-07
1.4700	1.4750	1.43E-07
1.4750	1.4800	1.05E-07
1.4800	1.4850	1.04E-07
1.4850	1.4900	1.04E-07
1.4900	1.4950	1.04E-07
1.4950	1.5000	1.03E-07
1.5000	1.5050	9.27E-08
1.5050	1.5100	9.19E-08
1.5100	1.5150	9.22E-08
1.5150	1.5200	9.12E-08
1.5200	1.5250	9.05E-08
1.5250	1.5300	1.54E-07
1.5300	1.5350	1.54E-07
1.5350	1.5400	1.55E-07
1.5400	1.5450	1.54E-07
1.5450	1.5500	1.55E-07
1.5500	1.5550	1.79E-07
1.5550	1.5600	1.78E-07
1.5600	1.5650	1.79E-07
1.5650	1.5700	1.79E-07
1.5700	1.5750	1.79E-07
1.5750	1.5800	1.53E-07
1.5800	1.5850	1.54E-07
1.5850	1.5900	1.54E-07
1.5900	1.5950	1.52E-07
1.5950	1.6000	1.53E-07
1.6000	1.6050	9.14E-08
1.6050	1.6100	8.98E-08
1.6100	1.6150	9.08E-08
1.6150	1.6200	8.97E-08
1.6200	1.6250	9.01E-08
1.6250	1.6300	9.03E-08
1.6300	1.6350	9.03E-08
1.6350	1.6400	8.97E-08
1.6400	1.6450	9.10E-08
1.6450	1.6500	9.01E-08
1.6500	1.6550	1.28E-07
1.6550	1.6600	1.27E-07
1.6600	1.6650	1.28E-07
1.6650	1.6700	1.28E-07
1.6700	1.6750	1.28E-07
1.6750	1.6800	1.15E-07
1.6800	1.6850	1.15E-07
1.6850	1.6900	1.15E-07
1.6900	1.6950	1.15E-07
1.6950	1.7000	1.15E-07
1.7000	1.7050	1.02E-07
1.7050	1.7100	1.02E-07
1.7100	1.7150	1.02E-07
1.7150	1.7200	1.02E-07
1.7200	1.7250	1.02E-07
1.7250	1.7300	1.15E-07
1.7300	1.7350	1.15E-07
1.7350	1.7400	1.15E-07
1.7400	1.7450	1.15E-07
1.7450	1.7500	1.15E-07
1.7500	1.7550	8.93E-08
1.7550	1.7600	9.08E-08
1.7600	1.7650	8.97E-08
1.7650	1.7700	9.07E-08
1.7700	1.7750	8.89E-08
1.7750	1.7800	3.91E-08
1.7800	1.7850	4.01E-08
1.7850	1.7900	3.91E-08
1.7900	1.7950	3.93E-08
1.7950	1.8000	3.89E-08
1.8000	1.8050	1.15E-07
1.8050	1.8100	1.15E-07
1.8100	1.8150	1.14E-07
1.8150	1.8200	1.15E-07
1.8200	1.8250	1.14E-07
1.8250	1.8300	1.01E-07
1.8300	1.8350	1.01E-07
1.8350	1.8400	1.01E-07
1.8400	1.8450	1.02E-07
1.8450	1.8500	1.01E-07
1.8500	1.8550	8.91E-08
1.8550	1.8600	8.86E-08
1.8600	1.8650	8.90E-08
1.8650	1.8700	8.96E-08
1.8700	1.8750	8.91E-08
1.8750	1.8800	1.27E-07
1.8800	1.8850	1.26E-07
1.8850	1.8900	1.26E-07
1.8900	1.8950	1.27E-07
1.8950	1.9000	1.26E-07
1.9000	1.9050	7.59E-08
1.9050	1.9100	7.64E-08
1.9100	1.9150	7.61E-08
1.9150	1.9200	7.62E-08
1.9200	1.9250	7.60E-08
1.9250	1.9300	8.86E-08
1.9300	1.9350	8.89E-08
1.9350	1.9400	8.87E-08
1.9400	1.9450	8.90E-08
1.9450	1.9500	8.92E-08
1.9500	1.9550	1.64E-07
1.9550	1.9600	1.64E-07
1.9600	1.9650	1.64E-07
1.9650	1.9700	1.64E-07
1.9700	1.9750	1.64E-07
1.9750	1.9800	6.35E-08
1.9800	1.9850	6.37E-08
1.9850	1.9900	6.35E-08
1.9900	1.9950	6.33E-08
1.9950	2.0000	6.36E-08
2.0000	2.0050	6.33E-08
2.0050	2.0100	6.35E-08
2.0100	2.0150	6.34E-08
2.0150	2.0200	6.38E-08
2.0200	2.0250	6.33E-08
2.0250	2.0300	3.81E-08
2.0300	2.0350	3.85E-08
2.0350	2.0400	3.81E-08
2.0400	2.0450	3.83E-08
2.0450	2.0500	3.82E-08
2.0500	2.0550	7.60E-08
2.0550	2.0600	7.62E-08
2.0600	2.0650	7.64E-08
2.0650	2.0700	7.61E-08
2.0700	2.0750	7.61E-08
2.0750	2.0800	8.87E-08
2.0800	2.0850	8.85E-08
2.0850	2.0900	8.88E-08
2.0900	2.0950	8.86E-08
2.0950	2.1000	8.84E-08
2.1000	2.1050	2.55E-08
2.1050	2.1100	2.57E-08
2.1100	2.1150	2.55E-08
2.1150	2.1200	2.58E-08
2.1200	2.1250	2.59E-08
2.1250	2.1300	6.33E-08
2.1300	2.1350	6.34E-08
2.1350	2.1400	6.32E-08
2.1400	2.1450	6.35E-08
2.1450	2.1500	6.32E-08
2.1500	2.1550	1.14E-07
2.1550	2.1600	1.14E-07
2.1600	2.1650	1.14E-07
2.1650	2.1700	1.14E-07
2.1700	2.1750	1.13E-07
2.1750	2.1800	3.87E-08
2.1800	2.1850	3.82E-08
2.1850	2.1900	3.82E-08
2.1900	2.1950	3.81E-08
2.1950	2.2000	3.82E-08
2.2000	2.2050	7.61E-08
2.2050	2.2100	7.57E-08
2.2100	2.2150	7.58E-08
2.2150	2.2200	7.60E-08
2.2200	2.2250	7.59E-08
2.2250	2.2300	2.54E-08
2.2300	2.2350	2.67E-08
2.2350	2.2400	2.56E-08
2.2400	2.2450	2.57E-08
2.2450	2.2500	2.54E-08
2.2500	2.2550	1.28E-08
2.2550	2.2600	1.29E-08
2.2600	2.2650	1.27E-08
2.2650	2.2700	1.30E-08
2.2700	2.2750	1.30E-08
2.2750	2.2800	8.86E-08
2.2800	2.2850	8.84E-08
2.2850	2.2900	8.85E-08
2.2900	2.2950	8.82E-08
2.2950	2.3000	8.84E-08
2.3000	2.3050	1.26E-07
2.3050	2.3100	1.26E-07
2.3100	2.3150	1.26E-07
2.3150	2.3200	1.26E-07
2.3200	2.3250	1.26E-07
2.3250	2.3300	6.34E-08
2.3300	2.3350	6.33E-08
2.3350	2.3400	6.31E-08
2.3400	2.3450	6.32E-08
2.3450	2.3500	6.33E-08
2.3500	2.3550	2.54E-08
2.3550	2.3600	2.54E-08
2.3600	2.3650	2.56E-08
2.3650	2.3700	2.66E-08
2.3700	2.3750	2.55E-08
2.3750	2.3800	1.30E-08
2.3800	2.3850	1.29E-08
2.3850	2.3900	1.29E-08
2.3900	2.3950	1.27E-08
2.3950	2.4000	1.29E-08
2.4000	2.4050	5.07E-08
2.4050	2.4100	5.05E-08
2.4100	2.4150	5.04E-08
2.4150	2.4200	5.06E-08
2.4200	2.4250	5.06E-08
2.4250	2.4300	6.32E-08
2.4300	2.4350	6.32E-08
2.4350	2.4400	6.31E-08
2.4400	2.4450	6.31E-08
2.4450	2.4500	6.33E-08
2.4500	2.4550	5.76E-10
2.4550	2.4600	1.59E-10
2.4600	2.4650	2.11E-10
2.4650	2.4700	2.04E-10
2.4700	2.4750	7.23E-10
2.4750	2.4800	8.82E-08
2.4800	2.4850	8.81E-08
2.4850	2.4900	8.82E-08
2.4900	2.4950	8.82E-08
2.4950	2.5000	8.83E-08
2.5000	2.5050	2.53E-08
2.5050	2.5100	2.52E-08
2.5100	2.5150	2.55E-08
2.5150	2.5200	2.53E-08
2.5200	2.5250	2.54E-08
2.5250	2.5300	2.54E-08
2.5300	2.5350	2.54E-08
2.5350	2.5400	2.55E-08
2.5400	2.5450	2.53E-08
2.5450	2.5500	2.53E-08
2.5500	2.5550	5.05E-08
2.5550	2.5600	5.05E-08
2.5600	2.5650	5.08E-08
2.5650	2.5700	5.06E-08
2.5700	2.5750	5.04E-08
2.5750	2.5800	5.04E-08
2.5800	2.5850	5.05E-08
2.5850	2.5900	5.13E-08
2.5900	2.5950	5.06E-08
2.5950	2.6000	5.06E-08
2.6000	2.6050	1.28E-08
2.6050	2.6100	1.31E-08
2.6100	2.6150	1.28E-08
2.6150	2.6200	1.31E-08
2.6200	2.6250	1.28E-08
2.6250	2.6300	3.84E-08
2.6300	2.6350	3.79E-08
2.6350	2.6400	3.80E-08
2.6400	2.6450	3.83E-08
2.6450	2.6500	3.78E-08
2.6500	2.6550	3.78E-08
2.6550	2.6600	3.79E-08
2.6600	2.6650	3.78E-08
2.6650	2.6700	3.86E-08
2.6700	2.6750	3.80E-08
2.6750	2.6800	2.53E-08
2.6800	2.6850	2.56E-08
2.6850	2.6900	2.54E-08
2.6900	2.6950	2.54E-08
2.6950	2.7000	2.53E-08
2.7000	2.7050	1.28E-08
2.7050	2.7100	1.30E-08
2.7100	2.7150	1.28E-08
2.7150	2.7200	1.28E-08
2.7200	2.7250	1.29E-08
2.7250	2.7300	2.57E-08
2.7300	2.7350	2.54E-08
2.7350	2.7400	2.54E-08
2.7400	2.7450	2.54E-08
2.7450	2.7500	2.52E-08
2.7500	2.7550	3.77E-08
2.7550	2.7600	3.80E-08
2.7600	2.7650	3.80E-08
2.7650	2.7700	3.78E-08
2.7700	2.7750	3.77E-08
2.7750	2.7800	5.08E-08
2.7800	2.7850	5.03E-08
2.7850	2.7900	5.05E-08
2.7900	2.7950	5.04E-08
2.7950	2.8000	5.07E-08
2.8000	2.8050	1.95E-10
2.8050	2.8100	7.18E-10
2.8100	2.8150	2.20E-10
2.8150	2.8200	1.93E-10
2.8200	2.8250	3.01E-10
2.8250	2.8300	3.82E-08
2.8300	2.8350	3.78E-08
2.8350	2.8400	3.82E-08
2.8400	2.8450	3.79E-08
2.8450	2.8500	3.78E-08
2.8500	2.8550	2.92E-10
2.8550	2.8600	3.27E-10
2.8600	2.8650	5.49E-10
2.8650	2.8700	7.32E-10
2.8700	2.8750	9.14E-10
2.8750	2.8800	1.38E-08
2.8800	2.8850	1.33E-08
2.8850	2.8900	1.44E-08
2.8900	2.8950	1.46E-08
2.8950	2.9000	1.59E-08
2.9000	2.9050	1.54E-08
2.9050	2.9100	1.70E-08
2.9100	2.9150	1.81E-08
2.9150	2.9200	1.83E-08
2.9200	2.9250	2.05E-08
2.9250	2.9300	2.50E-08
2.9300	2.9350	2.89E-08
2.9350	2.9400	3.26E-08
2.9400	2.9450	3.67E-08
2.9450	2.9500	4.69E-08
2.9500	2.9550	6.93E-08
2.9550	2.9600	7.78E-08
2.9600	2.9650	9.45E-08
2.9650	2.9700	1.15E-07
2.9700	2.9750	1.42E-07
2.9750	2.9800	1.52E-07
2.9800	2.9850	1.82E-07
2.9850	2.9900	2.43E-07
2.9900	2.9950	2.84E-07
2.9950	3.0000	3.45E-07
3.0000	3.0050	4.22E-07
3.0050	3.0100	5.07E-07
3.0100	3.0150	5.93E-07
3.0150	3.0200	7.00E-07
3.0200	3.0250	7.96E-07
3.0250	3.0300	9.21E-07
3.0300	3.0350	1.06E-06
3.0350	3.0400	1.19E-06
3.0400	3.0450	1.37E-06
3.0450	3.0500	1.51E-06
3.0500	3.0550	1.65E-06
3.0550	3.0600	1.80E-06
3.0600	3.0650	1.96E-06
3.0650	3.0700	2.12E-06
3.0700	3.0750	2.25E-06
3.0750	3.0800	2.43E-06
3.0800	3.0850	2.53E-06
3.0850	3.0900	2.61E-06
3.0900	3.0950	2.66E-06
3.0950	3.1000	2.69E-06
3.1000	3.1050	2.59E-06
3.1050	3.1100	2.59E-06
3.1100	3.1150	2.53E-06
3.1150	3.1200	2.45E-06
3.1200	3.1250	2.35E-06
3.1250	3.1300	2.24E-06
3.1300	3.1350	2.10E-06
3.1350	3.1400	1.94E-06
3.1400	3.1450	1.77E-06
3.1450	3.1500	1.61E-06
3.1500	3.1550	1.44E-06
3.1550	3.1600	1.28E-06
3.1600	3.1650	1.11E-06
3.1650	3.1700	9.61E-07
3.1700	3.1750	8.28E-07
3.1750	3.1800	6.87E-07
3.1800	3.1850	5.74E-07
3.1850	3.1900	4.85E-07
3.1900	3.1950	3.96E-07
3.1950	3.2000	3.11E-07
3.2000	3.2050	2.60E-07
3.2050	3.2100	2.06E-07
3.2100	3.2150	1.71E-07
3.2150	3.2200	1.32E-07
3.2200	3.2250	1.09E-07
3.2250	3.2300	8.19E-08
3.2300	3.2350	6.24E-08
3.2350	3.2400	5.12E-08
3.2400	3.2450	3.89E-08
3.2450	3.2500	3.35E-08
3.2500	3.2550	4.20E-08
3.2550	3.2600	3.43E-08
3.2600	3.2650	3.18E-08
3.2650	3.2700	2.97E-08
3.2700	3.2750	2.92E-08
3.2750	3.2800	1.51E-08
3.2800	3.2850	1.46E-08
3.2850	3.2900	1.40E-08
3.2900	3.2950	1.32E-08
3.2950	3.3000	1.30E-08
3.3000	3.3050	8.27E-10
3.3050	3.3100	2.90E-10
3.3100	3.3150	2.39E-10
3.3150	3.3200	2.00E-10
3.3200	3.3250	1.73E-10
3.3250	3.3300	1.27E-08
3.3300	3.3350	1.29E-08
3.3350	3.3400	1.27E-08
3.3400	3.3450	1.28E-08
3.3450	3.3500	1.30E-08
3.3500	3.3550	2.54E-08
3.3550	3.3600	2.53E-08
3.3600	3.3650	2.54E-08
3.3650	3.3700	2.52E-08
3.3700	3.3750	2.54E-08
3.3750	3.3800	9.75E-12
3.3800	3.3850	2.23E-10
3.3850	3.3900	6.01E-11
3.3900	3.3950	2.97E-10
3.3950	3.4000	8.10E-11
3.4000	3.4050	2.54E-08
3.4050	3.4100	2.53E-08
3.4100	3.4150	2.52E-08
3.4150	3.4200	2.53E-08
3.4200	3.4250	2.53E-08
3.4250	3.4300	1.28E-08
3.4300	3.4350	1.28E-08
3.4350	3.4400	1.28E-08
3.4400	3.4450	1.28E-08
3.4450	3.4500	1.28E-08
3.4500	3.4550	2.63E-10
3.4550	3.4600	1.83E-10
3.4600	3.4650	3.86E-10
3.4650	3.4700	5.12E-10
3.4700	3.4750	3.56E-10
3.4750	3.4800	3.57E-10
3.4800	3.4850	6.41E-10
3.4850	3.4900	7.11E-10
3.4900	3.4950	1.02E-09
3.4950	3.5000	1.09E-09
3.5000	3.5050	1.08E-09
3.5050	3.5100	1.15E-09
3.5100	3.5150	1.58E-09
3.5150	3.5200	1.84E-09
3.5200	3.5250	2.05E-09
3.5250	3.5300	1.53E-08
3.5300	3.5350	1.55E-08
3.5350	3.5400	1.61E-08
3.5400	3.5450	1.66E-08
3.5450	3.5500	1.73E-08
3.5500	3.5550	1.81E-08
3.5550	3.5600	1.90E-08
3.5600	3.5650	2.00E-08
3.5650	3.5700	2.08E-08
3.5700	3.5750	2.22E-08
3.5750	3.5800	1.10E-08
3.5800	3.5850	1.25E-08
3.5850	3.5900	1.40E-08
3.5900	3.5950	1.55E-08
3.5950	3.6000	1.72E-08
3.6000	3.6050	1.94E-08
3.6050	3.6100	2.13E-08
3.6100	3.6150	2.32E-08
3.6150	3.6200	2.52E-08
3.6200	3.6250	2.73E-08
3.6250	3.6300	2.98E-08
3.6300	3.6350	3.26E-08
3.6350	3.6400	3.40E-08
3.6400	3.6450	3.58E-08
3.6450	3.6500	3.79E-08
3.6500	3.6550	5.27E-08
3.6550	3.6600	5.39E-08
3.6600	3.6650	5.53E-08
3.6650	3.6700	5.72E-08
3.6700	3.6750	5.78E-08
3.6750	3.6800	5.86E-08
3.6800	3.6850	5.86E-08
3.6850	3.6900	5.90E-08
3.6900	3.6950	5.93E-08
3.6950	3.7000	5.85E-08
3.7000	3.7050	5.84E-08
3.7050	3.7100	5.73E-08
3.7100	3.7150	5.65E-08
3.7150	3.7200	5.48E-08
3.7200	3.7250	5.26E-08
3.7250	3.7300	3.83E-08
3.7300	3.7350	3.61E-08
3.7350	3.7400	3.45E-08
3.7400	3.7450	3.22E-08
3.7450	3.7500	3.00E-08
3.7500	3.7550	2.79E-08
3.7550	3.7600	2.59E-08
3.7600	3.7650	2.31E-08
3.7650	3.7700	2.08E-08
3.7700	3.7750	1.90E-08
3.7750	3.7800	2.92E-08
3.7800	3.7850	2.78E-08
3.7850	3.7900	2.60E-08
3.7900	3.7950	2.40E-08
3.7950	3.8000	2.29E-08
3.8000	3.8050	8.81E-09
3.8050	3.8100	7.23E-09
3.8100	3.8150	6.54E-09
3.8150	3.8200	5.40E-09
3.8200	3.8250	4.67E-09
3.8250	3.8300	3.95E-09
3.8300	3.8350	3.15E-09
3.8350	3.8400	2.63E-09
3.8400	3.8450	2.14E-09
3.8450	3.8500	1.78E-09
3.8500	3.8550	1.53E-09
3.8550	3.8600	1.09E-09
3.8600	3.8650	9.26E-10
3.8650	3.8700	7.78E-10
3.8700	3.8750	5.95E-10
3.8750	3.8800	1.32E-08
3.8800	3.8850	1.29E-08
3.8850	3.8900	1.28E-08
3.8900	3.8950	1.28E-08
3.8950	3.9000	1.28E-08
3.9000	3.9050	2.54E-08
3.9050	3.9100	2.54E-08
3.9100	3.9150	2.52E-08
3.9150	3.9200	2.52E-08
3.9200	3.9250	2.52E-08
3.9250	3.9300	1.20E-10
3.9300	3.9350	3.41E-11
3.9350	3.9400	2.88E-11
3.9400	3.9450	1.23E-10
3.9450	3.9500	2.28E-11
3.9500	3.9550	1.26E-08
3.9550	3.9600	1.26E-08
3.9600	3.9650	1.26E-08
3.9650	3.9700	1.26E-08
3.9700	3.9750	1.28E-08
3.9750	3.9800	3.89E-11
3.9800	3.9850	6.41E-11
3.9850	3.9900	1.93E-10
3.9900	3.9950	1.74E-12
3.9950	4.0000	4.69E-11
***
0.0000	0.0050	8.23E-05
0.0050	0.0100	0.000119479
0.0100	0.0150	9.05E-05
0.0150	0.0200	5.99E-05
0.0200	0.0250	3.85E-05
0.0250	0.0300	2.62E-05
0.0300	0.0350	1.95E-05
0.0350	0.0400	1.55E-05
0.0400	0.0450	1.26E-05
0.0450	0.0500	1.07E-05
0.0500	0.0550	9.19E-06
0.0550	0.0600	7.85E-06
0.0600	0.0650	6.72E-06
0.0650	0.0700	5.90E-06
0.0700	0.0750	5.03E-06
0.0750	0.0800	4.32E-06
0.0800	0.0850	3.71E-06
0.0850	0.0900	3.17E-06
0.0900	0.0950	2.70E-06
0.0950	0.1000	2.25E-06
0.1000	0.1050	1.87E-06
0.1050	0.1100	1.53E-06
0.1100	0.1150	1.23E-06
0.1150	0.1200	9.97E-07
0.1200	0.1250	8.15E-07
0.1250	0.1300	6.92E-07
0.1300	0.1350	6.22E-07
0.1350	0.1400	5.71E-07
0.1400	0.1450	5.41E-07
0.1450	0.1500	5.17E-07
0.1500	0.1550	4.98E-07
0.1550	0.1600	4.81E-07
0.1600	0.1650	4.49E-07
0.1650	0.1700	4.41E-07
0.1700	0.1750	4.17E-07
0.1750	0.1800	4.05E-07
0.1800	0.1850	3.88E-07
0.1850	0.1900	3.71E-07
0.1900	0.1950	3.67E-07
0.1950	0.2000	3.56E-07
0.2000	0.2050	3.42E-07
0.2050	0.2100	3.30E-07
0.2100	0.2150	3.20E-07
0.2150	0.2200	3.05E-07
0.2200	0.2250	3.02E-07
0.2250	0.2300	2.91E-07
0.2300	0.2350	2.91E-07
0.2350	0.2400	2.80E-07
0.2400	0.2450	2.67E-07
0.2450	0.2500	2.58E-07
0.2500	0.2550	2.48E-07
0.2550	0.2600	2.49E-07
0.2600	0.2650	2.37E-07
0.2650	0.2700	2.29E-07
0.2700	0.2750	2.22E-07
0.2750	0.2800	2.14E-07
0.2800	0.2850	2.15E-07
0.2850	0.2900	2.09E-07
0.2900	0.2950	1.99E-07
0.2950	0.3000	1.93E-07
0.3000	0.3050	1.91E-07
0.3050	0.3100	1.82E-07
0.3100	0.3150	1.77E-07
0.3150	0.3200	1.76E-07
0.3200	0.3250	1.66E-07
0.3250	0.3300	1.68E-07
0.3300	0.3350	1.63E-07
0.3350	0.3400	1.60E-07
0.3400	0.3450	1.58E-07
0.3450	0.3500	1.51E-07
0.3500	0.3550	1.50E-07
0.3550	0.3600	1.48E-07
0.3600	0.3650	1.42E-07
0.3650	0.3700	1.39E-07
0.3700	0.3750	1.38E-07
0.3750	0.3800	1.24E-07
0.3800	0.3850	1.20E-07
0.3850	0.3900	1.17E-07
0.3900	0.3950	1.16E-07
0.3950	0.4000	1.09E-07
0.4000	0.4050	1.09E-07
0.4050	0.4100	1.03E-07
0.4100	0.4150	1.02E-07
0.4150	0.4200	9.83E-08
0.4200	0.4250	9.68E-08
0.4250	0.4300	9.44E-08
0.4300	0.4350	9.03E-08
0.4350	0.4400	8.67E-08
0.4400	0.4450	8.17E-08
0.4450	0.4500	8.42E-08
0.4500	0.4550	7.80E-08
0.4550	0.4600	7.80E-08
0.4600	0.4650	7.21E-08
0.4650	0.4700	7.28E-08
0.4700	0.4750	6.98E-08
0.4750	0.4800	6.76E-08
0.4800	0.4850	6.58E-08
0.4850	0.4900	6.53E-08
0.4900	0.4950	6.16E-08
0.4950	0.5000	5.96E-08
0.5000	0.5050	6.23E-08
0.5050	0.5100	5.74E-08
0.5100	0.5150	5.86E-08
0.5150	0.5200	5.87E-08
0.5200	0.5250	5.77E-08
0.5250	0.5300	5.31E-08
0.5300	0.5350	4.93E-08
0.5350	0.5400	4.97E-08
0.5400	0.5450	5.16E-08
0.5450	0.5500	5.14E-08
0.5500	0.5550	5.83E-08
0.5550	0.5600	5.68E-08
0.5600	0.5650	5.81E-08
0.5650	0.5700	5.94E-08
0.5700	0.5750	6.01E-08
0.5750	0.5800	5.85E-08
0.5800	0.5850	5.92E-08
0.5850	0.5900	6.02E-08
0.5900	0.5950	6.07E-08
0.5950	0.6000	6.25E-08
0.6000	0.6050	6.44E-08
0.6050	0.6100	6.41E-08
0.6100	0.6150	6.54E-08
0.6150	0.6200	6.59E-08
0.6200	0.6250	6.57E-08
0.6250	0.6300	5.94E-08
0.6300	0.6350	5.73E-08
0.6350	0.6400	5.64E-08
0.6400	0.6450	5.55E-08
0.6450	0.6500	5.59E-08
0.6500	0.6550	5.46E-08
0.6550	0.6600	5.62E-08
0.6600	0.6650	5.74E-08
0.6650	0.6700	6.09E-08
0.6700	0.6750	6.32E-08
0.6750	0.6800	6.83E-08
0.6800	0.6850	7.10E-08
0.6850	0.6900	7.52E-08
0.6900	0.6950	7.90E-08
0.6950	0.7000	8.35E-08
0.7000	0.7050	9.70E-08
0.7050	0.7100	1.02E-07
0.7100	0.7150	1.07E-07
0.7150	0.7200	1.11E-07
0.7200	0.7250	1.17E-07
0.7250	0.7300	1.14E-07
0.7300	0.7350	1.20E-07
0.7350	0.7400	1.30E-07
0.7400	0.7450	1.41E-07
0.7450	0.7500	1.61E-07
0.7500	0.7550	1.96E-07
0.7550	0.7600	2.47E-07
0.7600	0.7650	3.26E-07
0.7650	0.7700	4.31E-07
0.7700	0.7750	5.37E-07
0.7750	0.7800	6.22E-07
0.7800	0.7850	6.48E-07
0.7850	0.7900	6.01E-07
0.7900	0.7950	5.03E-07
0.7950	0.8000	3.89E-07
0.8000	0.8050	2.73E-07
0.8050	0.8100	1.91E-07
0.8100	0.8150	1.32E-07
0.8150	0.8200	9.72E-08
0.8200	0.8250	7.64E-08
0.8250	0.8300	5.97E-08
0.8300	0.8350	5.18E-08
0.8350	0.8400	4.55E-08
0.8400	0.8450	4.11E-08
0.8450	0.8500	3.70E-08
0.8500	0.8550	3.42E-08
0.8550	0.8600	3.24E-08
0.8600	0.8650	2.96E-08
0.8650	0.8700	2.75E-08
0.8700	0.8750	2.56E-08
0.8750	0.8800	2.39E-08
0.8800	0.8850	2.21E-08
0.8850	0.8900	2.14E-08
0.8900	0.8950	2.06E-08
0.8950	0.9000	1.91E-08
0.9000	0.9050	1.61E-08
0.9050	0.9100	1.55E-08
0.9100	0.9150	1.46E-08
0.9150	0.9200	1.47E-08
0.9200	0.9250	1.35E-08
0.9250	0.9300	1.32E-08
0.9300	0.9350	1.28E-08
0.9350	0.9400	1.30E-08
0.9400	0.9450	1.28E-08
0.9450	0.9500	1.30E-08
0.9500	0.9550	1.72E-08
0.9550	0.9600	1.81E-08
0.9600	0.9650	1.99E-08
0.9650	0.9700	2.34E-08
0.9700	0.9750	2.94E-08
0.9750	0.9800	3.66E-08
0.9800	0.9850	5.75E-08
0.9850	0.9900	9.21E-08
0.9900	0.9950	1.44E-07
0.9950	1.0000	2.14E-07
1.0000	1.0050	3.03E-07
1.0050	1.0100	3.93E-07
1.0100	1.0150	4.70E-07
1.0150	1.0200	5.08E-07
1.0200	1.0250	5.01E-07
1.0250	1.0300	4.47E-07
1.0300	1.0350	3.67E-07
1.0350	1.0400	2.72E-07
1.0400	1.0450	1.86E-07
1.0450	1.0500	1.18E-07
1.0500	1.0550	7.36E-08
1.0550	1.0600	4.22E-08
1.0600	1.0650	2.57E-08
1.0650	1.0700	1.68E-08
1.0700	1.0750	1.25E-08
1.0750	1.0800	1.10E-08
1.0800	1.0850	9.57E-09
1.0850	1.0900	8.58E-09
1.0900	1.0950	7.83E-09
1.0950	1.1000	7.58E-09
1.1000	1.1050	8.33E-09
1.1050	1.1100	8.02E-09
1.1100	1.1150	7.52E-09
1.1150	1.1200	7.50E-09
1.1200	1.1250	7.18E-09
1.1250	1.1300	5.87E-09
1.1300	1.1350	5.70E-09
1.1350	1.1400	5.73E-09
1.1400	1.1450	5.58E-09
1.1450	1.1500	5.29E-09
1.1500	1.1550	3.96E-09
1.1550	1.1600	3.96E-09
1.1600	1.1650	3.82E-09
1.1650	1.1700	3.82E-09
1.1700	1.1750	3.73E-09
1.1750	1.1800	9.86E-09
1.1800	1.1850	9.92E-09
1.1850	1.1900	9.87E-09
1.1900	1.1950	9.82E-09
1.1950	1.2000	9.76E-09
1.2000	1.2050	3.43E-09
1.2050	1.2100	3.35E-09
1.2100	1.2150	3.41E-09
1.2150	1.2200	3.32E-09
1.2200	1.2250	3.25E-09
1.2250	1.2300	7.00E-09
1.2300	1.2350	7.10E-09
1.2350	1.2400	6.95E-09
1.2400	1.2450	6.93E-09
1.2450	1.2500	6.94E-09
1.2500	1.2550	1.07E-08
1.2550	1.2600	1.07E-08
1.2600	1.2650	1.06E-08
1.2650	1.2700	1.06E-08
1.2700	1.2750	1.07E-08
1.2750	1.2800	5.50E-09
1.2800	1.2850	5.52E-09
1.2850	1.2900	5.48E-09
1.2900	1.2950	5.51E-09
1.2950	1.3000	5.50E-09
1.3000	1.3050	4.21E-09
1.3050	1.3100	4.15E-09
1.3100	1.3150	4.13E-09
1.3150	1.3200	4.26E-09
1.3200	1.3250	4.10E-09
1.3250	1.3300	1.62E-09
1.3300	1.3350	1.56E-09
1.3350	1.3400	1.59E-09
1.3400	1.3450	1.53E-09
1.3450	1.3500	1.58E-09
1.3500	1.3550	3.25E-10
1.3550	1.3600	3.78E-10
1.3600	1.3650	2.93E-10
1.3650	1.3700	3.03E-10
1.3700	1.3750	2.97E-10
1.3750	1.3800	5.29E-09
1.3800	1.3850	5.28E-09
1.3850	1.3900	5.25E-09
1.3900	1.3950	5.23E-09
1.3950	1.4000	5.33E-09
1.4000	1.4050	2.82E-09
1.4050	1.4100	2.75E-09
1.4100	1.4150	2.71E-09
1.4150	1.4200	2.73E-09
1.4200	1.4250	2.75E-09
1.4250	1.4300	3.97E-09
1.4300	1.4350	3.97E-09
1.4350	1.4400	3.97E-09
1.4400	1.4450	3.95E-09
1.4450	1.4500	3.98E-09
1.4500	1.4550	7.69E-09
1.4550	1.4600	7.72E-09
1.4600	1.4650	7.69E-09
1.4650	1.4700	7.70E-09
1.4700	1.4750	7.69E-09
1.4750	1.4800	2.68E-09
1.4800	1.4850	2.68E-09
1.4850	1.4900	2.68E-09
1.4900	1.4950	2.68E-09
1.4950	1.5000	2.66E-09
1.5000	1.5050	3.92E-09
1.5050	1.5100	3.91E-09
1.5100	1.5150	3.89E-09
1.5150	1.5200	3.88E-09
1.5200	1.5250	3.90E-09
1.5250	1.5300	3.92E-09
1.5300	1.5350	3.94E-09
1.5350	1.5400	3.88E-09
1.5400	1.5450	3.92E-09
1.5450	1.5500	3.85E-09
1.5500	1.5550	1.36E-09
1.5550	1.5600	1.37E-09
1.5600	1.5650	1.36E-09
1.5650	1.5700	1.39E-09
1.5700	1.5750	1.36E-09
1.5750	1.5800	1.37E-09
1.5800	1.5850	1.37E-09
1.5850	1.5900	1.37E-09
1.5900	1.5950	1.33E-09
1.5950	1.6000	1.33E-09
1.6000	1.6050	1.28E-10
1.6050	1.6100	7.96E-11
1.6100	1.6150	1.29E-10
1.6150	1.6200	7.54E-11
1.6200	1.6250	6.91E-11
1.6250	1.6300	3.85E-09
1.6300	1.6350	3.84E-09
1.6350	1.6400	3.85E-09
1.6400	1.6450	3.86E-09
1.6450	1.6500	3.84E-09
1.6500	1.6550	7.22E-11
1.6550	1.6600	8.17E-11
1.6600	1.6650	7.53E-11
1.6650	1.6700	5.08E-11
1.6700	1.6750	8.96E-11
1.6750	1.6800	3.83E-09
1.6800	1.6850	3.85E-09
1.6850	1.6900	3.84E-09
1.6900	1.6950	3.84E-09
1.6950	1.7000	3.83E-09
1.7000	1.7050	5.83E-11
1.7050	1.7100	5.68E-11
1.7100	1.7150	6.87E-11
1.7150	1.7200	3.29E-11
1.7200	1.7250	4.24E-11
1.7250	1.7300	5.09E-09
1.7300	1.7350	5.09E-09
1.7350	1.7400	5.08E-09
1.7400	1.7450	5.10E-09
1.7450	1.7500	5.08E-09
1.7500	1.7550	1.30E-09
1.7550	1.7600	1.29E-09
1.7600	1.7650	1.31E-09
1.7650	1.7700	1.30E-09
1.7700	1.7750	1.29E-09
1.7750	1.7800	1.30E-09
1.7800	1.7850	1.29E-09
1.7850	1.7900	1.30E-09
1.7900	1.7950	1.31E-09
1.7950	1.8000	1.30E-09
1.8000	1.8050	5.10E-09
1.8050	1.8100	5.07E-09
1.8100	1.8150	5.06E-09
1.8150	1.8200	5.06E-09
1.8200	1.8250	5.09E-09
1.8250	1.8300	2.55E-09
1.8300	1.8350	2.55E-09
1.8350	1.8400	2.55E-09
1.8400	1.8450	2.57E-09
1.8450	1.8500	2.57E-09
1.8500	1.8550	2.56E-09
1.8550	1.8600	2.55E-09
1.8600	1.8650	2.55E-09
1.8650	1.8700	2.55E-09
1.8700	1.8750	2.55E-09
1.8750	1.8800	3.38E-11
1.8800	1.8850	5.16E-11
1.8850	1.8900	2.78E-11
1.8900	1.8950	3.51E-11
1.8950	1.9000	3.14E-11
1.9000	1.9050	1.30E-09
1.9050	1.9100	1.31E-09
1.9100	1.9150	1.28E-09
1.9150	1.9200	1.29E-09
1.9200	1.9250	1.28E-09
1.9250	1.9300	2.54E-09
1.9300	1.9350	2.54E-09
1.9350	1.9400	2.53E-09
1.9400	1.9450	2.54E-09
1.9450	1.9500	2.54E-09
1.9500	1.9550	7.56E-09
1.9550	1.9600	7.56E-09
1.9600	1.9650	7.56E-09
1.9650	1.9700	7.56E-09
1.9700	1.9750	7.57E-09
1.9750	1.9800	2.53E-09
1.9800	1.9850	2.53E-09
1.9850	1.9900	2.54E-09
1.9900	1.9950	2.54E-09
1.9950	2.0000	2.54E-09
2.0000	2.0050	5.05E-09
2.0050	2.0100	5.06E-09
2.0100	2.0150	5.06E-09
2.0150	2.0200	5.04E-09
2.0200	2.0250	5.04E-09
2.0250	2.0300	3.79E-09
2.0300	2.0350	3.79E-09
2.0350	2.0400	3.79E-09
2.0400	2.0450	3.80E-09
2.0450	2.0500	3.80E-09
2.0500	2.0550	1.30E-09
2.0550	2.0600	1.28E-09
2.0600	2.0650	1.28E-09
2.0650	2.0700	1.27E-09
2.0700	2.0750	1.27E-09
2.0750	2.0800	1.28E-09
2.0800	2.0850	1.27E-09
2.0850	2.0900	1.28E-09
2.0900	2.0950	1.28E-09
2.0950	2.1000	1.28E-09
2.1000	2.1050	2.54E-09
2.1050	2.1100	2.53E-09
2.1100	2.1150	2.53E-09
2.1150	2.1200	2.53E-09
2.1200	2.1250	2.53E-09
2.1250	2.1300	1.27E-09
2.1300	2.1350	1.28E-09
2.1350	2.1400	1.27E-09
2.1400	2.1450	1.27E-09
2.1450	2.1500	1.28E-09
2.1500	2.1550	5.06E-09
2.1550	2.1600	5.04E-09
2.1600	2.1650	5.04E-09
2.1650	2.1700	5.04E-09
2.1700	2.1750	5.04E-09
2.1750	2.1800	2.53E-09
2.1800	2.1850	2.52E-09
2.1850	2.1900	2.53E-09
2.1900	2.1950	2.52E-09
2.1950	2.2000	2.53E-09
2.2000	2.2050	2.52E-09
2.2050	2.2100	2.52E-09
2.2100	2.2150	2.51E-09
2.2150	2.2200	2.53E-09
2.2200	2.2250	2.53E-09
2.2250	2.2300	1.27E-09
2.2300	2.2350	1.27E-09
2.2350	2.2400	1.27E-09
2.2400	2.2450	1.27E-09
2.2450	2.2500	1.27E-09
2.2500	2.2550	1.27E-09
2.2550	2.2600	1.28E-09
2.2600	2.2650	1.27E-09
2.2650	2.2700	1.27E-09
2.2700	2.2750	1.27E-09
2.2750	2.2800	1.68E-11
2.2800	2.2850	1.44E-11
2.2850	2.2900	8.95E-12
2.2900	2.2950	9.51E-12
2.2950	2.3000	1.22E-11
2.3000	2.3050	2.52E-09
2.3050	2.3100	2.55E-09
2.3100	2.3150	2.52E-09
2.3150	2.3200	2.52E-09
2.3200	2.3250	2.52E-09
2.3250	2.3300	2.53E-09
2.3300	2.3350	2.52E-09
2.3350	2.3400	2.53E-09
2.3400	2.3450	2.53E-09
2.3450	2.3500	2.53E-09
2.3500	2.3550	1.26E-09
2.3550	2.3600	1.26E-09
2.3600	2.3650	1.27E-09
2.3650	2.3700	1.26E-09
2.3700	2.3750	1.27E-09
2.3750	2.3800	1.27E-09
2.3800	2.3850	1.27E-09
2.3850	2.3900	1.26E-09
2.3900	2.3950	1.26E-09
2.3950	2.4000	1.26E-09
2.4000	2.4050	1.27E-09
2.4050	2.4100	1.26E-09
2.4100	2.4150	1.27E-09
2.4150	2.4200	1.26E-09
2.4200	2.4250	1.27E-09
2.4250	2.4300	2.52E-09
2.4300	2.4350	2.52E-09
2.4350	2.4400	2.52E-09
2.4400	2.4450	2.52E-09
2.4450	2.4500	2.52E-09
2.4500	2.4550	1.26E-09
2.4550	2.4600	1.27E-09
2.4600	2.4650	1.26E-09
2.4650	2.4700	1.27E-09
2.4700	2.4750	1.26E-09
2.4750	2.4800	1.28E-09
2.4800	2.4850	1.27E-09
2.4850	2.4900	1.26E-09
2.4900	2.4950	1.27E-09
2.4950	2.5000	1.27E-09
2.5000	2.5050	8.19E-12
2.5050	2.5100	6.89E-12
2.5100	2.5150	5.04E-12
2.5150	2.5200	2.69E-12
2.5200	2.5250	7.04E-12
2.5250	2.5300	1.54E-11
2.5300	2.5350	8.44E-12
2.5350	2.5400	3.23E-12
2.5400	2.5450	1.08E-11
2.5450	2.5500	4.68E-12
2.5500	2.5550	2.52E-09
2.5550	2.5600	2.52E-09
2.5600	2.5650	2.52E-09
2.5650	2.5700	2.52E-09
2.5700	2.5750	2.52E-09
2.5750	2.5800	1.26E-09
2.5800	2.5850	1.27E-09
2.5850	2.5900	1.26E-09
2.5900	2.5950	1.26E-09
2.5950	2.6000	1.26E-09
2.6000	2.6050	1.26E-09
2.6050	2.6100	1.26E-09
2.6100	2.6150	1.27E-09
2.6150	2.6200	1.26E-09
2.6200	2.6250	1.26E-09
2.6250	2.6300	2.51E-09
2.6300	2.6350	2.52E-09
2.6350	2.6400	2.52E-09
2.6400	2.6450	2.52E-09
2.6450	2.6500	2.53E-09
2.6500	2.6550	1.27E-09
2.6550	2.6600	1.26E-09
2.6600	2.6650	1.27E-09
2.6650	2.6700	1.26E-09
2.6700	2.6750	1.26E-09
2.6750	2.6800	2.52E-09
2.6800	2.6850	2.52E-09
2.6850	2.6900	2.52E-09
2.6900	2.6950	2.52E-09
2.6950	2.7000	2.52E-09
2.7000	2.7050	1.26E-09
2.7050	2.7100	1.26E-09
2.7100	2.7150	1.27E-09
2.7150	2.7200	1.27E-09
2.7200	2.7250	1.26E-09
2.7250	2.7300	3.79E-09
2.7300	2.7350	3.78E-09
2.7350	2.7400	3.78E-09
2.7400	2.7450	3.77E-09
2.7450	2.7500	3.77E-09
2.7500	2.7550	2.52E-09
2.7550	2.7600	2.52E-09
2.7600	2.7650	2.52E-09
2.7650	2.7700	2.52E-09
2.7700	2.7750	2.52E-09
2.7750	2.7800	1.26E-09
2.7800	2.7850	1.27E-09
2.7850	2.7900	1.26E-09
2.7900	2.7950	1.27E-09
2.7950	2.8000	1.27E-09
2.8000	2.8050	1.27E-09
2.8050	2.8100	1.27E-09
2.8100	2.8150	1.26E-09
2.8150	2.8200	1.28E-09
2.8200	2.8250	1.28E-09
2.8250	2.8300	2.50E-11
2.8300	2.8350	1.87E-11
2.8350	2.8400	2.36E-11
2.8400	2.8450	4.69E-11
2.8450	2.8500	2.71E-11
2.8500	2.8550	6.01E-11
2.8550	2.8600	7.49E-11
2.8600	2.8650	7.54E-11
2.8650	2.8700	8.15E-11
2.8700	2.8750	9.02E-11
2.8750	2.8800	1.37E-09
2.8800	2.8850	1.42E-09
2.8850	2.8900	1.46E-09
2.8900	2.8950	1.58E-09
2.8950	2.9000	1.59E-09
2.9000	2.9050	2.96E-09
2.9050	2.9100	3.08E-09
2.9100	2.9150	3.17E-09
2.9150	2.9200	3.44E-09
2.9200	2.9250	3.54E-09
2.9250	2.9300	1.45E-09
2.9300	2.9350	1.63E-09
2.9350	2.9400	2.11E-09
2.9400	2.9450	2.57E-09
2.9450	2.9500	3.16E-09
2.9500	2.9550	4.06E-09
2.9550	2.9600	4.89E-09
2.9600	2.9650	6.37E-09
2.9650	2.9700	7.37E-09
2.9700	2.9750	9.19E-09
2.9750	2.9800	1.09E-08
2.9800	2.9850	1.28E-08
2.9850	2.9900	1.56E-08
2.9900	2.9950	1.81E-08
2.9950	3.0000	2.19E-08
3.0000	3.0050	2.66E-08
3.0050	3.0100	3.04E-08
3.0100	3.0150	3.48E-08
3.0150	3.0200	4.01E-08
3.0200	3.0250	4.62E-08
3.0250	3.0300	5.05E-08
3.0300	3.0350	5.67E-08
3.0350	3.0400	6.34E-08
3.0400	3.0450	7.03E-08
3.0450	3.0500	7.55E-08
3.0500	3.0550	8.38E-08
3.0550	3.0600	9.15E-08
3.0600	3.0650	9.81E-08
3.0650	3.0700	1.04E-07
3.0700	3.0750	1.10E-07
3.0750	3.0800	1.16E-07
3.0800	3.0850	1.21E-07
3.0850	3.0900	1.25E-07
3.0900	3.0950	1.29E-07
3.0950	3.1000	1.29E-07
3.1000	3.1050	1.30E-07
3.1050	3.1100	1.30E-07
3.1100	3.1150	1.28E-07
3.1150	3.1200	1.24E-07
3.1200	3.1250	1.21E-07
3.1250	3.1300	1.13E-07
3.1300	3.1350	1.09E-07
3.1350	3.1400	1.02E-07
3.1400	3.1450	9.41E-08
3.1450	3.1500	8.79E-08
3.1500	3.1550	8.06E-08
3.1550	3.1600	7.20E-08
3.1600	3.1650	6.56E-08
3.1650	3.1700	5.85E-08
3.1700	3.1750	5.11E-08
3.1750	3.1800	4.44E-08
3.1800	3.1850	3.88E-08
3.1850	3.1900	3.32E-08
3.1900	3.1950	2.70E-08
3.1950	3.2000	2.29E-08
3.2000	3.2050	2.08E-08
3.2050	3.2100	1.74E-08
3.2100	3.2150	1.43E-08
3.2150	3.2200	1.16E-08
3.2200	3.2250	9.20E-09
3.2250	3.2300	6.71E-09
3.2300	3.2350	5.19E-09
3.2350	3.2400	3.71E-09
3.2400	3.2450	2.63E-09
3.2450	3.2500	2.05E-09
3.2500	3.2550	2.85E-09
3.2550	3.2600	2.48E-09
3.2600	3.2650	2.19E-09
3.2650	3.2700	1.92E-09
3.2700	3.2750	1.72E-09
3.2750	3.2800	1.57E-09
3.2800	3.2850	1.49E-09
3.2850	3.2900	1.39E-09
3.2900	3.2950	1.36E-09
3.2950	3.3000	1.34E-09
3.3000	3.3050	3.77E-11
3.3050	3.3100	4.38E-11
3.3100	3.3150	4.94E-11
3.3150	3.3200	4.44E-11
3.3200	3.3250	1.93E-11
3.3250	3.3300	8.95E-12
3.3300	3.3350	9.21E-12
3.3350	3.3400	5.25E-12
3.3400	3.3450	2.17E-11
3.3450	3.3500	1.92E-11
3.3500	3.3550	5.16E-13
3.3550	3.3600	6.55E-12
3.3600	3.3650	1.06E-12
3.3650	3.3700	1.92E-11
3.3700	3.3750	9.09E-12
3.3750	3.3800	1.61E-11
3.3800	3.3850	1.21E-11
3.3850	3.3900	1.68E-11
3.3900	3.3950	1.02E-11
3.3950	3.4000	5.52E-12
3.4000	3.4050	1.26E-09
3.4050	3.4100	1.27E-09
3.4100	3.4150	1.27E-09
3.4150	3.4200	1.27E-09
3.4200	3.4250	1.26E-09
3.4250	3.4300	1.27E-09
3.4300	3.4350	1.28E-09
3.4350	3.4400	1.27E-09
3.4400	3.4450	1.27E-09
3.4450	3.4500	1.27E-09
3.4500	3.4550	3.79E-09
3.4550	3.4600	3.80E-09
3.4600	3.4650	3.81E-09
3.4650	3.4700	3.82E-09
3.4700	3.4750	3.81E-09
3.4750	3.4800	3.81E-11
3.4800	3.4850	4.67E-11
3.4850	3.4900	7.56E-11
3.4900	3.4950	6.84E-11
3.4950	3.5000	8.04E-11
3.5000	3.5050	1.35E-09
3.5050	3.5100	1.37E-09
3.5100	3.5150	1.38E-09
3.5150	3.5200	1.41E-09
3.5200	3.5250	1.43E-09
3.5250	3.5300	2.08E-10
3.5300	3.5350	2.38E-10
3.5350	3.5400	2.62E-10
3.5400	3.5450	3.07E-10
3.5450	3.5500	3.55E-10
3.5500	3.5550	3.90E-10
3.5550	3.5600	4.59E-10
3.5600	3.5650	5.26E-10
3.5650	3.5700	5.85E-10
3.5700	3.5750	6.57E-10
3.5750	3.5800	7.22E-10
3.5800	3.5850	8.01E-10
3.5850	3.5900	8.87E-10
3.5900	3.5950	9.81E-10
3.5950	3.6000	1.10E-09
3.6000	3.6050	1.17E-09
3.6050	3.6100	1.32E-09
3.6100	3.6150	1.42E-09
3.6150	3.6200	1.51E-09
3.6200	3.6250	1.61E-09
3.6250	3.6300	2.99E-09
3.6300	3.6350	3.15E-09
3.6350	3.6400	3.23E-09
3.6400	3.6450	3.30E-09
3.6450	3.6500	3.46E-09
3.6500	3.6550	2.29E-09
3.6550	3.6600	2.34E-09
3.6600	3.6650	2.44E-09
3.6650	3.6700	2.51E-09
3.6700	3.6750	2.56E-09
3.6750	3.6800	2.63E-09
3.6800	3.6850	2.61E-09
3.6850	3.6900	2.68E-09
3.6900	3.6950	2.67E-09
3.6950	3.7000	2.64E-09
3.7000	3.7050	2.62E-09
3.7050	3.7100	2.59E-09
3.7100	3.7150	2.56E-09
3.7150	3.7200	2.48E-09
3.7200	3.7250	2.40E-09
3.7250	3.7300	2.27E-09
3.7300	3.7350	2.22E-09
3.7350	3.7400	2.11E-09
3.7400	3.7450	2.04E-09
3.7450	3.7500	1.88E-09
3.7500	3.7550	1.80E-09
3.7550	3.7600	1.64E-09
3.7600	3.7650	1.55E-09
3.7650	3.7700	1.39E-09
3.7700	3.7750	1.30E-09
3.7750	3.7800	1.19E-09
3.7800	3.7850	1.06E-09
3.7850	3.7900	9.84E-10
3.7900	3.7950	8.64E-10
3.7950	3.8000	7.71E-10
3.8000	3.8050	6.72E-10
3.8050	3.8100	5.77E-10
3.8100	3.8150	5.15E-10
3.8150	3.8200	4.44E-10
3.8200	3.8250	3.90E-10
3.8250	3.8300	1.58E-09
3.8300	3.8350	1.52E-09
3.8350	3.8400	1.49E-09
3.8400	3.8450	1.46E-09
3.8450	3.8500	1.43E-09
3.8500	3.8550	1.43E-10
3.8550	3.8600	1.26E-10
3.8600	3.8650	9.52E-11
3.8650	3.8700	8.31E-11
3.8700	3.8750	6.70E-11
3.8750	3.8800	5.51E-11
3.8800	3.8850	4.53E-11
3.8850	3.8900	3.57E-11
3.8900	3.8950	2.87E-11
3.8950	3.9000	2.04E-11
3.9000	3.9050	2.11E-11
3.9050	3.9100	1.15E-11
3.9100	3.9150	1.33E-11
3.9150	3.9200	7.27E-12
3.9200	3.9250	7.12E-12
3.9250	3.9300	1.26E-09
3.9300	3.9350	1.26E-09
3.9350	3.9400	1.26E-09
3.9400	3.9450	1.26E-09
3.9450	3.9500	1.26E-09
3.9500	3.9550	1.26E-09
3.9550	3.9600	1.26E-09
3.9600	3.9650	1.26E-09
3.9650	3.9700	1.26E-09
3.9700	3.9750	1.26E-09
3.9750	3.9800	1.52E-12
3.9800	3.9850	6.37E-13
3.9850	3.9900	7.71E-13
3.9900	3.9950	1.29E-12
3.9950	4.0000	6.34E-12
***
0.0000	0.0050	3.37E-06
0.0050	0.0100	5.32E-06
0.0100	0.0150	4.39E-06
0.0150	0.0200	3.19E-06
0.0200	0.0250	2.19E-06
0.0250	0.0300	1.51E-06
0.0300	0.0350	1.08E-06
0.0350	0.0400	8.24E-07
0.0400	0.0450	6.60E-07
0.0450	0.0500	5.45E-07
0.0500	0.0550	4.65E-07
0.0550	0.0600	3.96E-07
0.0600	0.0650	3.41E-07
0.0650	0.0700	2.92E-07
0.0700	0.0750	2.52E-07
0.0750	0.0800	2.17E-07
0.0800	0.0850	1.85E-07
0.0850	0.0900	1.59E-07
0.0900	0.0950	1.34E-07
0.0950	0.1000	1.13E-07
0.1000	0.1050	9.26E-08
0.1050	0.1100	7.76E-08
0.1100	0.1150	6.33E-08
0.1150	0.1200	5.20E-08
0.1200	0.1250	4.26E-08
0.1250	0.1300	3.61E-08
0.1300	0.1350	3.24E-08
0.1350	0.1400	3.00E-08
0.1400	0.1450	2.78E-08
0.1450	0.1500	2.65E-08
0.1500	0.1550	2.54E-08
0.1550	0.1600	2.44E-08
0.1600	0.1650	2.34E-08
0.1650	0.1700	2.25E-08
0.1700	0.1750	2.20E-08
0.1750	0.1800	2.08E-08
0.1800	0.1850	1.99E-08
0.1850	0.1900	1.98E-08
0.1900	0.1950	1.89E-08
0.1950	0.2000	1.83E-08
0.2000	0.2050	1.76E-08
0.2050	0.2100	1.73E-08
0.2100	0.2150	1.66E-08
0.2150	0.2200	1.61E-08
0.2200	0.2250	1.54E-08
0.2250	0.2300	1.51E-08
0.2300	0.2350	1.45E-08
0.2350	0.2400	1.41E-08
0.2400	0.2450	1.39E-08
0.2450	0.2500	1.31E-08
0.2500	0.2550	1.28E-08
0.2550	0.2600	1.25E-08
0.2600	0.2650	1.22E-08
0.2650	0.2700	1.19E-08
0.2700	0.2750	1.13E-08
0.2750	0.2800	1.12E-08
0.2800	0.2850	1.11E-08
0.2850	0.2900	1.07E-08
0.2900	0.2950	1.06E-08
0.2950	0.3000	1.05E-08
0.3000	0.3050	9.78E-09
0.3050	0.3100	9.85E-09
0.3100	0.3150	9.53E-09
0.3150	0.3200	9.02E-09
0.3200	0.3250	8.90E-09
0.3250	0.3300	8.70E-09
0.3300	0.3350	8.44E-09
0.3350	0.3400	8.23E-09
0.3400	0.3450	7.91E-09
0.3450	0.3500	7.66E-09
0.3500	0.3550	7.40E-09
0.3550	0.3600	7.13E-09
0.3600	0.3650	7.12E-09
0.3650	0.3700	6.89E-09
0.3700	0.3750	6.74E-09
0.3750	0.3800	6.48E-09
0.3800	0.3850	6.28E-09
0.3850	0.3900	5.93E-09
0.3900	0.3950	5.80E-09
0.3950	0.4000	5.75E-09
0.4000	0.4050	5.69E-09
0.4050	0.4100	5.40E-09
0.4100	0.4150	5.36E-09
0.4150	0.4200	5.03E-09
0.4200	0.4250	4.92E-09
0.4250	0.4300	4.85E-09
0.4300	0.4350	4.77E-09
0.4350	0.4400	4.54E-09
0.4400	0.4450	4.43E-09
0.4450	0.4500	4.17E-09
0.4500	0.4550	4.17E-09
0.4550	0.4600	3.91E-09
0.4600	0.4650	3.86E-09
0.4650	0.4700	3.70E-09
0.4700	0.4750	3.58E-09
0.4750	0.4800	3.58E-09
0.4800	0.4850	3.38E-09
0.4850	0.4900	3.27E-09
0.4900	0.4950	3.22E-09
0.4950	0.5000	3.05E-09
0.5000	0.5050	2.99E-09
0.5050	0.5100	2.95E-09
0.5100	0.5150	2.86E-09
0.5150	0.5200	2.84E-09
0.5200	0.5250	2.74E-09
0.5250	0.5300	2.95E-09
0.5300	0.5350	2.84E-09
0.5350	0.5400	2.76E-09
0.5400	0.5450	2.78E-09
0.5450	0.5500	2.90E-09
0.5500	0.5550	2.82E-09
0.5550	0.5600	2.84E-09
0.5600	0.5650	2.83E-09
0.5650	0.5700	2.87E-09
0.5700	0.5750	3.00E-09
0.5750	0.5800	3.05E-09
0.5800	0.5850	3.11E-09
0.5850	0.5900	3.03E-09
0.5900	0.5950	3.04E-09
0.5950	0.6000	3.17E-09
0.6000	0.6050	3.31E-09
0.6050	0.6100	3.27E-09
0.6100	0.6150	3.36E-09
0.6150	0.6200	3.32E-09
0.6200	0.6250	3.39E-09
0.6250	0.6300	3.28E-09
0.6300	0.6350	3.29E-09
0.6350	0.6400	3.31E-09
0.6400	0.6450	3.30E-09
0.6450	0.6500	3.33E-09
0.6500	0.6550	3.33E-09
0.6550	0.6600	3.44E-09
0.6600	0.6650	3.55E-09
0.6650	0.6700	3.71E-09
0.6700	0.6750	3.86E-09
0.6750	0.6800	4.08E-09
0.6800	0.6850	4.28E-09
0.6850	0.6900	4.53E-09
0.6900	0.6950	4.81E-09
0.6950	0.7000	5.12E-09
0.7000	0.7050	5.45E-09
0.7050	0.7100	5.70E-09
0.7100	0.7150	6.02E-09
0.7150	0.7200	6.36E-09
0.7200	0.7250	6.74E-09
0.7250	0.7300	7.14E-09
0.7300	0.7350	7.72E-09
0.7350	0.7400	8.48E-09
0.7400	0.7450	9.53E-09
0.7450	0.7500	1.11E-08
0.7500	0.7550	1.36E-08
0.7550	0.7600	1.72E-08
0.7600	0.7650	2.18E-08
0.7650	0.7700	2.72E-08
0.7700	0.7750	3.25E-08
0.7750	0.7800	3.67E-08
0.7800	0.7850	3.83E-08
0.7850	0.7900	3.62E-08
0.7900	0.7950	3.19E-08
0.7950	0.8000	2.57E-08
0.8000	0.8050	1.95E-08
0.8050	0.8100	1.41E-08
0.8100	0.8150	1.01E-08
0.8150	0.8200	7.26E-09
0.8200	0.8250	5.46E-09
0.8250	0.8300	4.22E-09
0.8300	0.8350	3.48E-09
0.8350	0.8400	3.00E-09
0.8400	0.8450	2.59E-09
0.8450	0.8500	2.31E-09
0.8500	0.8550	2.16E-09
0.8550	0.8600	2.01E-09
0.8600	0.8650	1.84E-09
0.8650	0.8700	1.69E-09
0.8700	0.8750	1.57E-09
0.8750	0.8800	1.45E-09
0.8800	0.8850	1.36E-09
0.8850	0.8900	1.26E-09
0.8900	0.8950	1.21E-09
0.8950	0.9000	1.14E-09
0.9000	0.9050	1.13E-09
0.9050	0.9100	1.08E-09
0.9100	0.9150	1.04E-09
0.9150	0.9200	9.99E-10
0.9200	0.9250	9.85E-10
0.9250	0.9300	9.54E-10
0.9300	0.9350	9.43E-10
0.9350	0.9400	9.45E-10
0.9400	0.9450	9.68E-10
0.9450	0.9500	9.88E-10
0.9500	0.9550	1.08E-09
0.9550	0.9600	1.25E-09
0.9600	0.9650	1.49E-09
0.9650	0.9700	1.95E-09
0.9700	0.9750	2.70E-09
0.9750	0.9800	3.91E-09
0.9800	0.9850	5.80E-09
0.9850	0.9900	8.62E-09
0.9900	0.9950	1.23E-08
0.9950	1.0000	1.71E-08
1.0000	1.0050	2.21E-08
1.0050	1.0100	2.73E-08
1.0100	1.0150	3.14E-08
1.0150	1.0200	3.37E-08
1.0200	1.0250	3.35E-08
1.0250	1.0300	3.11E-08
1.0300	1.0350	2.69E-08
1.0350	1.0400	2.15E-08
1.0400	1.0450	1.61E-08
1.0450	1.0500	1.14E-08
1.0500	1.0550	7.53E-09
1.0550	1.0600	4.83E-09
1.0600	1.0650	2.99E-09
1.0650	1.0700	1.88E-09
1.0700	1.0750	1.23E-09
1.0750	1.0800	8.47E-10
1.0800	1.0850	6.19E-10
1.0850	1.0900	4.93E-10
1.0900	1.0950	4.05E-10
1.0950	1.1000	3.60E-10
1.1000	1.1050	4.56E-10
1.1050	1.1100	4.16E-10
1.1100	1.1150	3.89E-10
1.1150	1.1200	3.72E-10
1.1200	1.1250	3.57E-10
1.1250	1.1300	3.44E-10
1.1300	1.1350	3.35E-10
1.1350	1.1400	3.25E-10
1.1400	1.1450	3.19E-10
1.1450	1.1500	3.04E-10
1.1500	1.1550	2.38E-10
1.1550	1.1600	2.28E-10
1.1600	1.1650	2.23E-10
1.1650	1.1700	2.20E-10
1.1700	1.1750	2.14E-10
1.1750	1.1800	2.13E-10
1.1800	1.1850	2.06E-10
1.1850	1.1900	2.02E-10
1.1900	1.1950	1.97E-10
1.1950	1.2000	1.98E-10
1.2000	1.2050	7.01E-11
1.2050	1.2100	6.03E-11
1.2100	1.2150	6.03E-11
1.2150	1.2200	5.53E-11
1.2200	1.2250	5.04E-11
1.2250	1.2300	5.35E-11
1.2300	1.2350	5.01E-11
1.2350	1.2400	4.98E-11
1.2400	1.2450	4.45E-11
1.2450	1.2500	4.94E-11
1.2500	1.2550	2.92E-10
1.2550	1.2600	2.93E-10
1.2600	1.2650	2.91E-10
1.2650	1.2700	2.89E-10
1.2700	1.2750	2.95E-10
1.2750	1.2800	2.88E-10
1.2800	1.2850	2.85E-10
1.2850	1.2900	2.83E-10
1.2900	1.2950	2.85E-10
1.2950	1.3000	2.81E-10
1.3000	1.3050	2.83E-10
1.3050	1.3100	2.78E-10
1.3100	1.3150	2.79E-10
1.3150	1.3200	2.77E-10
1.3200	1.3250	2.79E-10
1.3250	1.3300	2.77E-10
1.3300	1.3350	2.76E-10
1.3350	1.3400	2.74E-10
1.3400	1.3450	2.72E-10
1.3450	1.3500	2.72E-10
1.3500	1.3550	2.10E-10
1.3550	1.3600	2.10E-10
1.3600	1.3650	2.14E-10
1.3650	1.3700	2.06E-10
1.3700	1.3750	2.07E-10
1.3750	1.3800	2.06E-10
1.3800	1.3850	2.07E-10
1.3850	1.3900	2.06E-10
1.3900	1.3950	2.05E-10
1.3950	1.4000	2.06E-10
1.4000	1.4050	1.61E-11
1.4050	1.4100	1.61E-11
1.4100	1.4150	1.55E-11
1.4150	1.4200	1.29E-11
1.4200	1.4250	1.28E-11
1.4250	1.4300	1.39E-11
1.4300	1.4350	1.38E-11
1.4350	1.4400	1.34E-11
1.4400	1.4450	1.22E-11
1.4450	1.4500	1.42E-11
1.4500	1.4550	3.27E-10
1.4550	1.4600	3.26E-10
1.4600	1.4650	3.26E-10
1.4650	1.4700	3.26E-10
1.4700	1.4750	3.25E-10
1.4750	1.4800	3.27E-10
1.4800	1.4850	3.24E-10
1.4850	1.4900	3.24E-10
1.4900	1.4950	3.23E-10
1.4950	1.5000	3.24E-10
1.5000	1.5050	1.35E-10
1.5050	1.5100	1.35E-10
1.5100	1.5150	1.34E-10
1.5150	1.5200	1.35E-10
1.5200	1.5250	1.34E-10
1.5250	1.5300	1.35E-10
1.5300	1.5350	1.35E-10
1.5350	1.5400	1.34E-10
1.5400	1.5450	1.35E-10
1.5450	1.5500	1.33E-10
1.5500	1.5550	8.24E-12
1.5550	1.5600	7.71E-12
1.5600	1.5650	5.92E-12
1.5650	1.5700	7.11E-12
1.5700	1.5750	6.45E-12
1.5750	1.5800	5.83E-12
1.5800	1.5850	8.03E-12
1.5850	1.5900	6.45E-12
1.5900	1.5950	5.61E-12
1.5950	1.6000	5.39E-12
1.6000	1.6050	1.94E-10
1.6050	1.6100	1.95E-10
1.6100	1.6150	1.95E-10
1.6150	1.6200	1.95E-10
1.6200	1.6250	1.95E-10
1.6250	1.6300	1.94E-10
1.6300	1.6350	1.94E-10
1.6350	1.6400	1.94E-10
1.6400	1.6450	1.94E-10
1.6450	1.6500	1.93E-10
1.6500	1.6550	1.31E-10
1.6550	1.6600	1.31E-10
1.6600	1.6650	1.30E-10
1.6650	1.6700	1.30E-10
1.6700	1.6750	1.29E-10
1.6750	1.6800	1.30E-10
1.6800	1.6850	1.30E-10
1.6850	1.6900	1.29E-10
1.6900	1.6950	1.30E-10
1.6950	1.7000	1.30E-10
1.7000	1.7050	3.33E-12
1.7050	1.7100	3.58E-12
1.7100	1.7150	4.20E-12
1.7150	1.7200	4.25E-12
1.7200	1.7250	3.75E-12
1.7250	1.7300	3.48E-12
1.7300	1.7350	3.42E-12
1.7350	1.7400	3.20E-12
1.7400	1.7450	4.67E-12
1.7450	1.7500	4.15E-12
1.7500	1.7550	6.60E-11
1.7550	1.7600	6.60E-11
1.7600	1.7650	6.71E-11
1.7650	1.7700	6.65E-11
1.7700	1.7750	6.54E-11
1.7750	1.7800	6.61E-11
1.7800	1.7850	6.63E-11
1.7850	1.7900	6.54E-11
1.7900	1.7950	6.54E-11
1.7950	1.8000	6.63E-11
1.8000	1.8050	1.29E-10
1.8050	1.8100	1.28E-10
1.8100	1.8150	1.28E-10
1.8150	1.8200	1.28E-10
1.8200	1.8250	1.28E-10
1.8250	1.8300	1.28E-10
1.8300	1.8350	1.28E-10
1.8350	1.8400	1.28E-10
1.8400	1.8450	1.28E-10
1.8450	1.8500	1.29E-10
1.8500	1.8550	1.91E-10
1.8550	1.8600	1.91E-10
1.8600	1.8650	1.90E-10
1.8650	1.8700	1.91E-10
1.8700	1.8750	1.92E-10
1.8750	1.8800	1.91E-10
1.8800	1.8850	1.91E-10
1.8850	1.8900	1.91E-10
1.8900	1.8950	1.91E-10
1.8950	1.9000	1.90E-10
1.9000	1.9050	1.91E-10
1.9050	1.9100	1.91E-10
1.9100	1.9150	1.90E-10
1.9150	1.9200	1.90E-10
1.9200	1.9250	1.90E-10
1.9250	1.9300	1.91E-10
1.9300	1.9350	1.90E-10
1.9350	1.9400	1.90E-10
1.9400	1.9450	1.90E-10
1.9450	1.9500	1.91E-10
1.9500	1.9550	1.28E-10
1.9550	1.9600	1.28E-10
1.9600	1.9650	1.27E-10
1.9650	1.9700	1.27E-10
1.9700	1.9750	1.27E-10
1.9750	1.9800	1.27E-10
1.9800	1.9850	1.27E-10
1.9850	1.9900	1.27E-10
1.9900	1.9950	1.27E-10
1.9950	2.0000	1.27E-10
2.0000	2.0050	1.27E-10
2.0050	2.0100	1.27E-10
2.0100	2.0150	1.27E-10
2.0150	2.0200	1.27E-10
2.0200	2.0250	1.27E-10
2.0250	2.0300	1.27E-10
2.0300	2.0350	1.27E-10
2.0350	2.0400	1.28E-10
2.0400	2.0450	1.27E-10
2.0450	2.0500	1.27E-10
2.0500	2.0550	6.41E-11
2.0550	2.0600	6.39E-11
2.0600	2.0650	6.44E-11
2.0650	2.0700	6.38E-11
2.0700	2.0750	6.37E-11
2.0750	2.0800	6.36E-11
2.0800	2.0850	6.37E-11
2.0850	2.0900	6.47E-11
2.0900	2.0950	6.43E-11
2.0950	2.1000	6.37E-11
2.1000	2.1050	1.27E-10
2.1050	2.1100	1.27E-10
2.1100	2.1150	1.27E-10
2.1150	2.1200	1.27E-10
2.1200	2.1250	1.27E-10
2.1250	2.1300	1.27E-10
2.1300	2.1350	1.27E-10
2.1350	2.1400	1.27E-10
2.1400	2.1450	1.27E-10
2.1450	2.1500	1.26E-10
2.1500	2.1550	1.90E-10
2.1550	2.1600	1.89E-10
2.1600	2.1650	1.89E-10
2.1650	2.1700	1.89E-10
2.1700	2.1750	1.90E-10
2.1750	2.1800	1.90E-10
2.1800	2.1850	1.89E-10
2.1850	2.1900	1.89E-10
2.1900	2.1950	1.89E-10
2.1950	2.2000	1.89E-10
2.2000	2.2050	2.52E-10
2.2050	2.2100	2.52E-10
2.2100	2.2150	2.53E-10
2.2150	2.2200	2.53E-10
2.2200	2.2250	2.52E-10
2.2250	2.2300	2.52E-10
2.2300	2.2350	2.52E-10
2.2350	2.2400	2.52E-10
2.2400	2.2450	2.52E-10
2.2450	2.2500	2.52E-10
2.2500	2.2550	8.55E-13
2.2550	2.2600	6.03E-13
2.2600	2.2650	1.37E-12
2.2650	2.2700	8.98E-13
2.2700	2.2750	3.35E-13
2.2750	2.2800	4.78E-13
2.2800	2.2850	8.81E-13
2.2850	2.2900	1.02E-12
2.2900	2.2950	4.36E-13
2.2950	2.3000	5.41E-13
2.3000	2.3050	5.55E-13
2.3050	2.3100	4.73E-13
2.3100	2.3150	6.52E-13
2.3150	2.3200	8.16E-13
2.3200	2.3250	6.58E-13
2.3250	2.3300	6.51E-13
2.3300	2.3350	1.91E-13
2.3350	2.3400	4.93E-13
2.3400	2.3450	3.33E-13
2.3450	2.3500	5.40E-13
2.3500	2.3550	8.92E-13
2.3550	2.3600	5.22E-13
2.3600	2.3650	9.20E-13
2.3650	2.3700	2.86E-13
2.3700	2.3750	4.37E-13
2.3750	2.3800	4.62E-13
2.3800	2.3850	6.23E-13
2.3850	2.3900	6.95E-13
2.3900	2.3950	5.12E-13
2.3950	2.4000	4.45E-13
2.4000	2.4050	1.26E-10
2.4050	2.4100	1.26E-10
2.4100	2.4150	1.26E-10
2.4150	2.4200	1.26E-10
2.4200	2.4250	1.26E-10
2.4250	2.4300	1.26E-10
2.4300	2.4350	1.26E-10
2.4350	2.4400	1.26E-10
2.4400	2.4450	1.26E-10
2.4450	2.4500	1.26E-10
2.4500	2.4550	3.44E-13
2.4550	2.4600	5.29E-13
2.4600	2.4650	2.82E-13
2.4650	2.4700	3.13E-13
2.4700	2.4750	5.29E-13
2.4750	2.4800	2.46E-13
2.4800	2.4850	4.28E-13
2.4850	2.4900	5.39E-13
2.4900	2.4950	4.64E-13
2.4950	2.5000	5.32E-13
2.5000	2.5050	6.30E-11
2.5050	2.5100	6.32E-11
2.5100	2.5150	6.35E-11
2.5150	2.5200	6.33E-11
2.5200	2.5250	6.32E-11
2.5250	2.5300	6.32E-11
2.5300	2.5350	6.33E-11
2.5350	2.5400	6.31E-11
2.5400	2.5450	6.38E-11
2.5450	2.5500	6.33E-11
2.5500	2.5550	3.83E-13
2.5550	2.5600	4.05E-13
2.5600	2.5650	1.97E-13
2.5650	2.5700	4.18E-13
2.5700	2.5750	1.74E-13
2.5750	2.5800	2.88E-13
2.5800	2.5850	5.31E-13
2.5850	2.5900	2.66E-13
2.5900	2.5950	5.49E-13
2.5950	2.6000	2.28E-13
2.6000	2.6050	1.26E-10
2.6050	2.6100	1.26E-10
2.6100	2.6150	1.26E-10
2.6150	2.6200	1.26E-10
2.6200	2.6250	1.26E-10
2.6250	2.6300	1.26E-10
2.6300	2.6350	1.26E-10
2.6350	2.6400	1.26E-10
2.6400	2.6450	1.26E-10
2.6450	2.6500	1.26E-10
2.6500	2.6550	6.31E-11
2.6550	2.6600	6.35E-11
2.6600	2.6650	6.42E-11
2.6650	2.6700	6.30E-11
2.6700	2.6750	6.30E-11
2.6750	2.6800	6.35E-11
2.6800	2.6850	6.32E-11
2.6850	2.6900	6.33E-11
2.6900	2.6950	6.33E-11
2.6950	2.7000	6.32E-11
2.7000	2.7050	6.35E-11
2.7050	2.7100	6.32E-11
2.7100	2.7150	6.34E-11
2.7150	2.7200	6.30E-11
2.7200	2.7250	6.34E-11
2.7250	2.7300	6.33E-11
2.7300	2.7350	6.32E-11
2.7350	2.7400	6.35E-11
2.7400	2.7450	6.34E-11
2.7450	2.7500	6.35E-11
2.7500	2.7550	6.36E-11
2.7550	2.7600	6.33E-11
2.7600	2.7650	6.32E-11
2.7650	2.7700	6.36E-11
2.7700	2.7750	6.44E-11
2.7750	2.7800	6.34E-11
2.7800	2.7850	6.41E-11
2.7850	2.7900	6.46E-11
2.7900	2.7950	6.48E-11
2.7950	2.8000	6.44E-11
2.8000	2.8050	1.90E-10
2.8050	2.8100	1.91E-10
2.8100	2.8150	1.90E-10
2.8150	2.8200	1.92E-10
2.8200	2.8250	1.91E-10
2.8250	2.8300	1.93E-10
2.8300	2.8350	1.94E-10
2.8350	2.8400	1.95E-10
2.8400	2.8450	1.96E-10
2.8450	2.8500	2.00E-10
2.8500	2.8550	1.30E-11
2.8550	2.8600	1.63E-11
2.8600	2.8650	1.71E-11
2.8650	2.8700	2.42E-11
2.8700	2.8750	2.86E-11
2.8750	2.8800	3.74E-11
2.8800	2.8850	4.23E-11
2.8850	2.8900	4.86E-11
2.8900	2.8950	6.20E-11
2.8950	2.9000	7.40E-11
2.9000	2.9050	9.51E-11
2.9050	2.9100	1.06E-10
2.9100	2.9150	1.32E-10
2.9150	2.9200	1.66E-10
2.9200	2.9250	2.08E-10
2.9250	2.9300	2.39E-10
2.9300	2.9350	2.82E-10
2.9350	2.9400	3.40E-10
2.9400	2.9450	4.18E-10
2.9450	2.9500	4.92E-10
2.9500	2.9550	6.36E-10
2.9550	2.9600	7.61E-10
2.9600	2.9650	8.52E-10
2.9650	2.9700	9.84E-10
2.9700	2.9750	1.16E-09
2.9750	2.9800	1.31E-09
2.9800	2.9850	1.51E-09
2.9850	2.9900	1.72E-09
2.9900	2.9950	2.03E-09
2.9950	3.0000	2.27E-09
3.0000	3.0050	2.56E-09
3.0050	3.0100	2.85E-09
3.0100	3.0150	3.23E-09
3.0150	3.0200	3.55E-09
3.0200	3.0250	3.94E-09
3.0250	3.0300	4.46E-09
3.0300	3.0350	4.83E-09
3.0350	3.0400	5.34E-09
3.0400	3.0450	5.80E-09
3.0450	3.0500	6.28E-09
3.0500	3.0550	6.96E-09
3.0550	3.0600	7.45E-09
3.0600	3.0650	7.87E-09
3.0650	3.0700	8.24E-09
3.0700	3.0750	8.60E-09
3.0750	3.0800	9.03E-09
3.0800	3.0850	9.19E-09
3.0850	3.0900	9.52E-09
3.0900	3.0950	9.76E-09
3.0950	3.1000	9.97E-09
3.1000	3.1050	9.69E-09
3.1050	3.1100	9.82E-09
3.1100	3.1150	9.71E-09
3.1150	3.1200	9.57E-09
3.1200	3.1250	9.41E-09
3.1250	3.1300	9.05E-09
3.1300	3.1350	8.78E-09
3.1350	3.1400	8.43E-09
3.1400	3.1450	7.88E-09
3.1450	3.1500	7.44E-09
3.1500	3.1550	7.12E-09
3.1550	3.1600	6.64E-09
3.1600	3.1650	6.09E-09
3.1650	3.1700	5.60E-09
3.1700	3.1750	5.09E-09
3.1750	3.1800	4.63E-09
3.1800	3.1850	4.11E-09
3.1850	3.1900	3.62E-09
3.1900	3.1950	3.23E-09
3.1950	3.2000	2.79E-09
3.2000	3.2050	2.42E-09
3.2050	3.2100	2.06E-09
3.2100	3.2150	1.80E-09
3.2150	3.2200	1.49E-09
3.2200	3.2250	1.30E-09
3.2250	3.2300	1.04E-09
3.2300	3.2350	9.10E-10
3.2350	3.2400	7.28E-10
3.2400	3.2450	6.09E-10
3.2450	3.2500	5.00E-10
3.2500	3.2550	4.15E-10
3.2550	3.2600	3.20E-10
3.2600	3.2650	2.80E-10
3.2650	3.2700	2.36E-10
3.2700	3.2750	1.89E-10
3.2750	3.2800	1.62E-10
3.2800	3.2850	1.46E-10
3.2850	3.2900	1.22E-10
3.2900	3.2950	9.93E-11
3.2950	3.3000	9.43E-11
3.3000	3.3050	3.00E-11
3.3050	3.3100	2.01E-11
3.3100	3.3150	1.60E-11
3.3150	3.3200	6.77E-12
3.3200	3.3250	8.69E-12
3.3250	3.3300	6.46E-12
3.3300	3.3350	2.72E-12
3.3350	3.3400	3.28E-12
3.3400	3.3450	1.47E-12
3.3450	3.3500	2.03E-12
3.3500	3.3550	2.61E-12
3.3550	3.3600	1.84E-12
3.3600	3.3650	2.79E-13
3.3650	3.3700	2.55E-12
3.3700	3.3750	7.43E-13
3.3750	3.3800	7.27E-13
3.3800	3.3850	1.24E-12
3.3850	3.3900	1.32E-12
3.3900	3.3950	5.62E-13
3.3950	3.4000	1.59E-12
3.4000	3.4050	6.44E-11
3.4050	3.4100	6.41E-11
3.4100	3.4150	6.40E-11
3.4150	3.4200	6.46E-11
3.4200	3.4250	6.43E-11
3.4250	3.4300	6.45E-11
3.4300	3.4350	6.56E-11
3.4350	3.4400	6.56E-11
3.4400	3.4450	6.60E-11
3.4450	3.4500	6.61E-11
3.4500	3.4550	6.68E-11
3.4550	3.4600	6.69E-11
3.4600	3.4650	6.75E-11
3.4650	3.4700	6.79E-11
3.4700	3.4750	6.97E-11
3.4750	3.4800	6.94E-11
3.4800	3.4850	7.09E-11
3.4850	3.4900	7.25E-11
3.4900	3.4950	7.29E-11
3.4950	3.5000	7.51E-11
3.5000	3.5050	1.39E-11
3.5050	3.5100	1.60E-11
3.5100	3.5150	1.86E-11
3.5150	3.5200	1.96E-11
3.5200	3.5250	2.26E-11
3.5250	3.5300	2.59E-11
3.5300	3.5350	2.78E-11
3.5350	3.5400	3.09E-11
3.5400	3.5450	3.57E-11
3.5450	3.5500	4.02E-11
3.5500	3.5550	4.48E-11
3.5550	3.5600	4.89E-11
3.5600	3.5650	5.51E-11
3.5650	3.5700	6.05E-11
3.5700	3.5750	6.49E-11
3.5750	3.5800	7.18E-11
3.5800	3.5850	7.84E-11
3.5850	3.5900	8.60E-11
3.5900	3.5950	9.44E-11
3.5950	3.6000	1.01E-10
3.6000	3.6050	1.10E-10
3.6050	3.6100	1.17E-10
3.6100	3.6150	1.26E-10
3.6150	3.6200	1.35E-10
3.6200	3.6250	1.42E-10
3.6250	3.6300	1.51E-10
3.6300	3.6350	1.59E-10
3.6350	3.6400	1.68E-10
3.6400	3.6450	1.77E-10
3.6450	3.6500	1.83E-10
3.6500	3.6550	2.53E-10
3.6550	3.6600	2.59E-10
3.6600	3.6650	2.63E-10
3.6650	3.6700	2.71E-10
3.6700	3.6750	2.76E-10
3.6750	3.6800	2.79E-10
3.6800	3.6850	2.80E-10
3.6850	3.6900	2.86E-10
3.6900	3.6950	2.86E-10
3.6950	3.7000	2.83E-10
3.7000	3.7050	2.84E-10
3.7050	3.7100	2.82E-10
3.7100	3.7150	2.81E-10
3.7150	3.7200	2.78E-10
3.7200	3.7250	2.71E-10
3.7250	3.7300	2.68E-10
3.7300	3.7350	2.59E-10
3.7350	3.7400	2.53E-10
3.7400	3.7450	2.46E-10
3.7450	3.7500	2.39E-10
3.7500	3.7550	1.66E-10
3.7550	3.7600	1.59E-10
3.7600	3.7650	1.49E-10
3.7650	3.7700	1.39E-10
3.7700	3.7750	1.30E-10
3.7750	3.7800	1.21E-10
3.7800	3.7850	1.12E-10
3.7850	3.7900	1.04E-10
3.7900	3.7950	9.35E-11
3.7950	3.8000	8.64E-11
3.8000	3.8050	7.79E-11
3.8050	3.8100	7.04E-11
3.8100	3.8150	6.29E-11
3.8150	3.8200	5.57E-11
3.8200	3.8250	4.99E-11
3.8250	3.8300	4.49E-11
3.8300	3.8350	3.90E-11
3.8350	3.8400	3.43E-11
3.8400	3.8450	2.99E-11
3.8450	3.8500	2.67E-11
3.8500	3.8550	8.50E-11
3.8550	3.8600	8.24E-11
3.8600	3.8650	7.97E-11
3.8650	3.8700	7.68E-11
3.8700	3.8750	7.48E-11
3.8750	3.8800	7.29E-11
3.8800	3.8850	7.12E-11
3.8850	3.8900	6.98E-11
3.8900	3.8950	6.88E-11
3.8950	3.9000	6.74E-11
3.9000	3.9050	3.80E-12
3.9050	3.9100	3.45E-12
3.9100	3.9150	2.35E-12
3.9150	3.9200	2.08E-12
3.9200	3.9250	1.93E-12
3.9250	3.9300	1.41E-12
3.9300	3.9350	1.13E-12
3.9350	3.9400	8.04E-13
3.9400	3.9450	6.89E-13
3.9450	3.9500	7.68E-13
3.9500	3.9550	3.89E-13
3.9550	3.9600	3.19E-13
3.9600	3.9650	4.51E-13
3.9650	3.9700	1.82E-13
3.9700	3.9750	1.50E-13
3.9750	3.9800	1.65E-13
3.9800	3.9850	1.77E-13
3.9850	3.9900	1.27E-13
3.9900	3.9950	1.97E-13
3.9950	4.0000	1.57E-13
***
0.0000	0.0050	4.65E-08
0.0050	0.0100	8.16E-08
0.0100	0.0150	7.35E-08
0.0150	0.0200	5.96E-08
0.0200	0.0250	4.51E-08
0.0250	0.0300	3.29E-08
0.0300	0.0350	2.39E-08
0.0350	0.0400	1.78E-08
0.0400	0.0450	1.37E-08
0.0450	0.0500	1.09E-08
0.0500	0.0550	9.00E-09
0.0550	0.0600	7.52E-09
0.0600	0.0650	6.41E-09
0.0650	0.0700	5.44E-09
0.0700	0.0750	4.70E-09
0.0750	0.0800	4.01E-09
0.0800	0.0850	3.44E-09
0.0850	0.0900	2.94E-09
0.0900	0.0950	2.48E-09
0.0950	0.1000	2.09E-09
0.1000	0.1050	1.73E-09
0.1050	0.1100	1.45E-09
0.1100	0.1150	1.20E-09
0.1150	0.1200	9.77E-10
0.1200	0.1250	8.40E-10
0.1250	0.1300	7.03E-10
0.1300	0.1350	6.35E-10
0.1350	0.1400	5.69E-10
0.1400	0.1450	5.33E-10
0.1450	0.1500	5.01E-10
0.1500	0.1550	4.77E-10
0.1550	0.1600	4.59E-10
0.1600	0.1650	4.36E-10
0.1650	0.1700	4.20E-10
0.1700	0.1750	4.01E-10
0.1750	0.1800	3.99E-10
0.1800	0.1850	3.79E-10
0.1850	0.1900	3.63E-10
0.1900	0.1950	3.56E-10
0.1950	0.2000	3.49E-10
0.2000	0.2050	3.30E-10
0.2050	0.2100	3.25E-10
0.2100	0.2150	3.09E-10
0.2150	0.2200	3.03E-10
0.2200	0.2250	2.93E-10
0.2250	0.2300	2.84E-10
0.2300	0.2350	2.76E-10
0.2350	0.2400	2.69E-10
0.2400	0.2450	2.61E-10
0.2450	0.2500	2.50E-10
0.2500	0.2550	2.44E-10
0.2550	0.2600	2.38E-10
0.2600	0.2650	2.33E-10
0.2650	0.2700	2.25E-10
0.2700	0.2750	2.15E-10
0.2750	0.2800	2.18E-10
0.2800	0.2850	2.11E-10
0.2850	0.2900	2.11E-10
0.2900	0.2950	2.01E-10
0.2950	0.3000	2.01E-10
0.3000	0.3050	1.92E-10
0.3050	0.3100	1.85E-10
0.3100	0.3150	1.83E-10
0.3150	0.3200	1.76E-10
0.3200	0.3250	1.77E-10
0.3250	0.3300	1.69E-10
0.3300	0.3350	1.61E-10
0.3350	0.3400	1.59E-10
0.3400	0.3450	1.53E-10
0.3450	0.3500	1.51E-10
0.3500	0.3550	1.51E-10
0.3550	0.3600	1.41E-10
0.3600	0.3650	1.38E-10
0.3650	0.3700	1.35E-10
0.3700	0.3750	1.29E-10
0.3750	0.3800	1.26E-10
0.3800	0.3850	1.22E-10
0.3850	0.3900	1.19E-10
0.3900	0.3950	1.15E-10
0.3950	0.4000	1.17E-10
0.4000	0.4050	1.12E-10
0.4050	0.4100	1.07E-10
0.4100	0.4150	1.03E-10
0.4150	0.4200	1.02E-10
