##make bins

$m_{ee}$ (GeV/$c^2$)
7
dN/d$m_{ee}$ ($c^2$/GeV)
dN/d$m_{ee}$ ($c^2$/GeV)
dN/d$m_{ee}$ ($c^2$/GeV)
dN/d$m_{ee}$ ($c^2$/GeV)
dN/d$m_{ee}$ ($c^2$/GeV)
dN/d$m_{ee}$ ($c^2$/GeV)
dN/d$m_{ee}$ ($c^2$/GeV)
0.5-1.0 Gev/$c$ x $10^3$
1.0-1.5 Gev/$c$ x $10^2$
1.5-2.0 Gev/$c$ x $10$
2.0-2.5 Gev/$c$
2.5-3.0 Gev/$c$ x $10^{-1}$
3.0-4.0 Gev/$c$ x $10^{-2}$
4.0-5.0 Gev/$c$ x $10^{-3}$
Yes
None
None
0
0.0025	44.2339
0.0075	43.7676
0.0125	21.4405
0.0175	11.9653
0.0225	8.1426
0.0275	6.35836
0.0325	5.06379
0.0375	4.17717
0.0425	3.64142
0.0475	3.19008
0.0525	2.76407
0.0575	2.32998
0.0625	2.09997
0.0675	1.78504
0.0725	1.51359
0.0775	1.31999
0.0825	1.13366
0.0875	0.928623
0.0925	0.801847
0.0975	0.664621
0.1025	0.498654
0.1075	0.393542
0.1125	0.344345
0.1175	0.266543
0.1225	0.193262
0.1275	0.172412
0.1325	0.16513
0.1375	0.14879
0.1425	0.150533
0.1475	0.146165
0.1525	0.146972
0.1575	0.147227
0.1625	0.144948
0.1675	0.151945
0.1725	0.144265
0.1775	0.141582
0.1825	0.140793
0.1875	0.143032
0.1925	0.144319
0.1975	0.136061
0.2025	0.139075
0.2075	0.13257
0.2125	0.136496
0.2175	0.132116
0.2225	0.132479
0.2275	0.132154
0.2325	0.129832
0.2375	0.133004
0.2425	0.132
0.2475	0.12334
0.2525	0.131801
0.2575	0.133966
0.2625	0.136016
0.2675	0.12696
0.2725	0.128356
0.2775	0.130729
0.2825	0.136268
0.2875	0.127145
0.2925	0.128127
0.2975	0.12672
0.3025	0.118923
0.3075	0.127068
0.3125	0.120967
0.3175	0.116291
0.3225	0.117559
0.3275	0.117076
0.3325	0.112289
0.3375	0.112389
0.3425	0.112277
0.3475	0.106226
0.3525	0.111025
0.3575	0.116239
0.3625	0.104436
0.3675	0.102051
0.3725	0.102308
0.3775	0.101809
0.3825	0.0990427
0.3875	0.104974
0.3925	0.099445
0.3975	0.0915188
0.4025	0.0934737
0.4075	0.0943786
0.4125	0.0869178
0.4175	0.0903474
0.4225	0.0850708
0.4275	0.0873058
0.4325	0.087444
0.4375	0.0832449
0.4425	0.0846381
0.4475	0.0842615
0.4525	0.0822929
0.4575	0.0765984
0.4625	0.0795498
0.4675	0.0751781
0.4725	0.0733634
0.4775	0.0745977
0.4825	0.0732885
0.4875	0.0733984
0.4925	0.0733987
0.4975	0.0687412
0.5025	0.0689255
0.5075	0.0644074
0.5125	0.0625113
0.5175	0.0641589
0.5225	0.0654064
0.5275	0.0643962
0.5325	0.0664772
0.5375	0.0647905
0.5425	0.0649464
0.5475	0.0639701
0.5525	0.0608532
0.5575	0.0651362
0.5625	0.0626442
0.5675	0.0623596
0.5725	0.0633893
0.5775	0.0656493
0.5825	0.0611665
0.5875	0.0616948
0.5925	0.0621663
0.5975	0.0610066
0.6025	0.0624651
0.6075	0.0646035
0.6125	0.0613496
0.6175	0.0620584
0.6225	0.0606121
0.6275	0.0577572
0.6325	0.0568205
0.6375	0.0547944
0.6425	0.0535951
0.6475	0.0517097
0.6525	0.0504578
0.6575	0.0480867
0.6625	0.0521776
0.6675	0.0511886
0.6725	0.0527607
0.6775	0.05419
0.6825	0.0543892
0.6875	0.0564486
0.6925	0.0570149
0.6975	0.0558121
0.7025	0.0581591
0.7075	0.0593916
0.7125	0.0594907
0.7175	0.0649155
0.7225	0.0627831
0.7275	0.0649298
0.7325	0.0662119
0.7375	0.0671043
0.7425	0.0678547
0.7475	0.0700616
0.7525	0.0746504
0.7575	0.0791086
0.7625	0.0927917
0.7675	0.123006
0.7725	0.18703
0.7775	0.27696
0.7825	0.318203
0.7875	0.273522
0.7925	0.181726
0.7975	0.109392
0.8025	0.0777379
0.8075	0.0619894
0.8125	0.0499482
0.8175	0.0429252
0.8225	0.0408003
0.8275	0.0416632
0.8325	0.0357714
0.8375	0.0331311
0.8425	0.0333549
0.8475	0.0321106
0.8525	0.0299875
0.8575	0.0322274
0.8625	0.0277666
0.8675	0.0259735
0.8725	0.0254804
0.8775	0.026252
0.8825	0.0252168
0.8875	0.0232316
0.8925	0.0246414
0.8975	0.020852
0.9025	0.0218372
0.9075	0.0211154
0.9125	0.021267
0.9175	0.0204078
0.9225	0.0209685
0.9275	0.0211091
0.9325	0.0206319
0.9375	0.0185726
0.9425	0.0182268
0.9475	0.0184156
0.9525	0.018838
0.9575	0.0167655
0.9625	0.0158231
0.9675	0.0186045
0.9725	0.0191493
0.9775	0.0184096
0.9825	0.0186301
0.9875	0.0185016
0.9925	0.0232221
0.9975	0.0300975
1.0025	0.0509821
1.0075	0.0952093
1.0125	0.163477
1.0175	0.220779
1.0225	0.21848
1.0275	0.15555
1.0325	0.0881114
1.0375	0.0446083
1.0425	0.0255807
1.0475	0.0193094
1.0525	0.0165324
1.0575	0.0143063
1.0625	0.0142143
1.0675	0.0145198
1.0725	0.0140506
1.0775	0.0130376
1.0825	0.0129493
1.0875	0.0125726
1.0925	0.0122741
1.0975	0.0108542
1.1025	0.0101077
1.1075	0.0115142
1.1125	0.012682
1.1175	0.010598
1.1225	0.00986224
1.1275	0.0114829
1.1325	0.0100876
1.1375	0.0100316
1.1425	0.0103978
1.1475	0.0122102
1.1525	0.0103986
1.1575	0.0112537
1.1625	0.00976206
1.1675	0.00830226
1.1725	0.00879047
1.1775	0.00904953
1.1825	0.0088974
1.1875	0.00835004
1.1925	0.00925355
1.1975	0.00974844
1.2025	0.00876046
1.2075	0.00781964
1.2125	0.00867509
1.2175	0.00934348
1.2225	0.00716913
1.2275	0.00761522
1.2325	0.00876123
1.2375	0.00927696
1.2425	0.00757229
1.2475	0.00823968
1.2525	0.00746841
1.2575	0.00667726
1.2625	0.00705647
1.2675	0.00805908
1.2725	0.00726594
1.2775	0.00698042
1.2825	0.00770224
1.2875	0.00706161
1.2925	0.00665158
1.2975	0.00736157
1.3025	0.00792643
1.3075	0.00725541
1.3125	0.00623416
1.3175	0.00485225
1.3225	0.00610711
1.3275	0.00684431
1.3325	0.00686525
1.3375	0.00641794
1.3425	0.00586556
1.3475	0.004982
1.3525	0.00628523
1.3575	0.00672085
1.3625	0.00639628
1.3675	0.00507986
1.3725	0.00619444
1.3775	0.00648768
1.3825	0.00546588
1.3875	0.00571619
1.3925	0.00720461
1.3975	0.0062456
1.4025	0.00583242
1.4075	0.0051773
1.4125	0.00681964
1.4175	0.0054419
1.4225	0.00475065
1.4275	0.00599744
1.4325	0.00448055
1.4375	0.00516531
1.4425	0.00534166
1.4475	0.00556966
1.4525	0.00525888
1.4575	0.00507794
1.4625	0.00407744
1.4675	0.00566701
1.4725	0.00531327
1.4775	0.00467415
1.4825	0.0058603
1.4875	0.00429622
1.4925	0.00469685
1.4975	0.00489587
1.5025	0.00493462
1.5075	0.00364892
1.5125	0.00521269
1.5175	0.00468859
1.5225	0.00457795
1.5275	0.00433788
1.5325	0.00406647
1.5375	0.0038262
1.5425	0.00432772
1.5475	0.0035059
1.5525	0.00404377
1.5575	0.00456337
1.5625	0.00336004
1.5675	0.00404673
1.5725	0.00294561
1.5775	0.00323073
1.5825	0.00392019
1.5875	0.00323589
1.5925	0.00370839
1.5975	0.00342012
1.6025	0.00367796
1.6075	0.00340622
1.6125	0.00342195
1.6175	0.00328594
1.6225	0.0040281
1.6275	0.00264633
1.6325	0.00324093
1.6375	0.00368922
1.6425	0.00396997
1.6475	0.00344537
1.6525	0.00377185
1.6575	0.00378436
1.6625	0.00327537
1.6675	0.00338829
1.6725	0.00308236
1.6775	0.00340659
1.6825	0.00292956
1.6875	0.00220935
1.6925	0.00234574
1.6975	0.00226943
1.7025	0.00302879
1.7075	0.00289582
1.7125	0.00281143
1.7175	0.00350826
1.7225	0.00290113
1.7275	0.00307515
1.7325	0.00326363
1.7375	0.00256575
1.7425	0.00212726
1.7475	0.00251967
1.7525	0.00207077
1.7575	0.00205725
1.7625	0.00282634
1.7675	0.00294932
1.7725	0.00190378
1.7775	0.00263241
1.7825	0.0018078
1.7875	0.00200257
1.7925	0.00234527
1.7975	0.00231454
1.8025	0.00151908
1.8075	0.00226023
1.8125	0.00144897
1.8175	0.00213448
1.8225	0.00193401
1.8275	0.00193143
1.8325	0.0019877
1.8375	0.00225111
1.8425	0.00192904
1.8475	0.00148959
1.8525	0.00213034
1.8575	0.00173528
1.8625	0.0025081
1.8675	0.0023536
1.8725	0.00186185
1.8775	0.00218323
1.8825	0.00250033
1.8875	0.00181902
1.8925	0.00147831
1.8975	0.00158827
1.9025	0.00144745
1.9075	0.00141815
1.9125	0.00129795
1.9175	0.00246077
1.9225	0.00189284
1.9275	0.00160409
1.9325	0.0017909
1.9375	0.00161354
1.9425	0.00197745
1.9475	0.00136578
1.9525	0.00116699
1.9575	0.00166267
1.9625	0.000837344
1.9675	0.00112348
1.9725	0.000922617
1.9775	0.00173817
1.9825	0.000607716
1.9875	0.00179484
1.9925	0.00103333
1.9975	0.00116959
2.0025	0.00153979
2.0075	0.00166154
2.0125	0.00110537
2.0175	0.00167795
2.0225	0.00148024
2.0275	0.000902541
2.0325	0.00154373
2.0375	0.000995768
2.0425	0.00116036
2.0475	0.00136201
2.0525	0.00123141
2.0575	0.00121709
2.0625	0.000914313
2.0675	0.00110677
2.0725	0.00110055
2.0775	0.00124373
2.0825	0.0012786
2.0875	0.0012428
2.0925	0.000844846
2.0975	0.00140636
2.1025	0.00123532
2.1075	0.000897971
2.1125	0.00121916
2.1175	0.00149853
2.1225	0.000840187
2.1275	0.000340485
2.1325	0.000846136
2.1375	0.000907086
2.1425	0.000965077
2.1475	0.000775101
2.1525	0.000662776
2.1575	0.00108414
2.1625	0.000779724
2.1675	0.00116659
2.1725	0.0007117
2.1775	0.000902986
2.1825	0.00103138
2.1875	0.0011696
2.1925	0.00103426
2.1975	0.000213768
2.2025	0.000527263
2.2075	0.000464225
2.2125	0.000847161
2.2175	0.00102117
2.2225	0.000524891
2.2275	0.00115452
2.2325	0.000963482
2.2375	0.000722272
2.2425	0.000721032
2.2475	0.000785021
2.2525	0.000970913
2.2575	0.000524575
2.2625	0.000652001
2.2675	0.000961266
2.2725	0.000330326
2.2775	0.00115473
2.2825	0.000580498
2.2875	0.000709149
2.2925	0.000461248
2.2975	0.000968863
2.3025	0.000584003
2.3075	0.000583075
2.3125	0.000331723
2.3175	0.000271984
2.3225	0.000765511
2.3275	0.000462554
2.3325	0.000648429
2.3375	0.000764101
2.3425	0.000585149
2.3475	0.00147338
2.3525	0.000400824
2.3575	0.000640889
2.3625	0.000392917
2.3675	0.000389182
2.3725	0.00103777
2.3775	0.000639466
2.3825	0.000767963
2.3875	0.000576845
2.3925	0.000892589
2.3975	0.000640278
2.4025	0.00109931
2.4075	0.000393872
2.4125	0.000446321
2.4175	0.000405636
2.4225	0.000896024
2.4275	0.000408314
2.4325	0.000328701
2.4375	0.000397859
2.4425	0.000648317
2.4475	0.000507625
2.4525	0.000959375
2.4575	0.000773218
2.4625	0.000448206
2.4675	0.000461947
2.4725	0.000518601
2.4775	0.000202979
2.4825	0.000393209
2.4875	0.000257558
2.4925	0.000479396
2.4975	0.000207177
2.5025	0.000337883
2.5075	0.000523088
2.5125	0.000326919
2.5175	0.000194759
2.5225	0.000458763
2.5275	0.000448628
2.5325	0.000132634
2.5375	0.000196791
2.5425	0.000260234
2.5475	0.000268181
2.5525	0.000269603
2.5575	0.000390951
2.5625	0.000449404
2.5675	0.000384705
2.5725	0.000133763
2.5775	0.000263912
2.5825	0.000260884
2.5875	0.000708762
2.5925	0.000388441
2.5975	0.000128413
2.6025	0.000261951
2.6075	0.000395731
2.6125	0.000327119
2.6175	0.000327793
2.6225	0.000570645
2.6275	0.000198047
2.6325	0.000263852
2.6375	0.000447209
2.6425	0.000391537
2.6475	0.000335316
2.6525	0.000384091
2.6575	0.000320611
2.6625	0.000637745
2.6675	0.000701988
2.6725	0.000443025
2.6775	0.00057808
2.6825	0.00019717
2.6875	0.000448418
2.6925	0.000262268
2.6975	0.000200173
2.7025	0.000323147
2.7075	0.000139805
2.7125	0.000449672
2.7175	0.000196762
2.7225	0.000325798
2.7275	0.000197071
2.7325	0.000450617
2.7375	0.000140713
2.7425	0.000261453
2.7475	0.000200277
2.7525	0.00026018
2.7575	0.000284659
2.7625	0.000315475
2.7675	0.000204691
2.7725	0.000260558
2.7775	0.000258872
2.7825	0.000198119
2.7875	0.000325827
2.7925	0.000201883
2.7975	0.00026012
2.8025	0.000145329
2.8075	1.15228e-005
2.8125	0.000196233
2.8175	0.000453201
2.8225	0.00027259
2.8275	0.000826371
2.8325	0.000192762
2.8375	0.000195175
2.8425	0.00021258
2.8475	0.000261378
2.8525	0.000323469
2.8575	0.000389307
2.8625	0.00019715
2.8675	0.000390738
2.8725	0.000263734
2.8775	7.35763e-005
2.8825	0.000131169
2.8875	0.000196854
2.8925	7.19053e-005
2.8975	0.000134857
2.9025	6.83717e-005
2.9075	0.000266646
2.9125	7.04933e-005
2.9175	0.000261253
2.9225	0.000133013
2.9275	7.44593e-005
2.9325	0.000132295
2.9375	7.07022e-005
2.9425	7.74184e-005
2.9475	0.000144091
2.9525	8.19654e-005
2.9575	0.000273722
2.9625	0.000287319
2.9675	0.000107715
2.9725	0.00012678
2.9775	0.000161253
2.9825	0.000328071
2.9875	0.000169725
2.9925	0.000439478
2.9975	0.000337521
3.0025	0.000586725
3.0075	0.00080896
3.0125	0.00085887
3.0175	0.00115498
3.0225	0.00137538
3.0275	0.00172445
3.0325	0.00221166
3.0375	0.00266416
3.0425	0.00319408
3.0475	0.00360733
3.0525	0.00427427
3.0575	0.004805
3.0625	0.00528202
3.0675	0.0058539
3.0725	0.00627431
3.0775	0.00673025
3.0825	0.00708374
3.0875	0.0073063
3.0925	0.00756979
3.0975	0.00740227
3.1025	0.00741595
3.1075	0.00708656
3.1125	0.00678552
3.1175	0.00640745
3.1225	0.00601602
3.1275	0.00530342
3.1325	0.00486979
3.1375	0.00409682
3.1425	0.00378381
3.1475	0.00323277
3.1525	0.00281988
3.1575	0.00213328
3.1625	0.00171121
3.1675	0.00132621
3.1725	0.00117371
3.1775	0.00081307
3.1825	0.000809042
3.1875	0.000592373
3.1925	0.000404075
3.1975	0.000315489
3.2025	0.0002244
3.2075	0.000250476
3.2125	0.000268101
3.2175	5.89323e-005
3.2225	0.00016367
3.2275	0.000151895
3.2325	0.000149774
3.2375	1.75479e-005
3.2425	0.000198542
3.2475	9.85218e-006
3.2525	6.65451e-005
3.2575	6.78032e-006
3.2625	4.72802e-006
3.2675	6.57144e-005
3.2725	0.000132455
3.2775	5.05573e-006
3.2825	7.84041e-006
3.2875	6.42203e-006
3.2925	0.000192874
3.2975	5.29252e-006
3.3025	6.81953e-005
3.3075	6.68186e-005
3.3125	8.2571e-006
3.3175	6.42138e-005
3.3225	6.40025e-005
3.3275	6.7198e-005
3.3325	6.41587e-005
3.3375	6.8368e-005
3.3425	0.000190528
3.3475	0.000199028
3.3525	6.59983e-005
3.3575	0.000128442
3.3625	0.000129974
3.3675	6.16986e-006
3.3725	6.95921e-005
3.3775	4.28682e-006
3.3825	5.86491e-006
3.3875	6.28469e-005
3.3925	0.000129654
3.3975	6.34617e-006
3.4025	4.61457e-006
3.4075	0.000129978
3.4125	6.68266e-006
3.4175	3.17629e-006
3.4225	6.97245e-005
3.4275	1.39899e-007
3.4325	0.000132228
3.4375	4.28454e-006
3.4425	1.82511e-006
3.4475	5.55144e-006
3.4525	6.0021e-006
3.4575	6.28547e-005
3.4625	3.28764e-006
3.4675	8.77692e-006
3.4725	7.481e-006
3.4775	7.39929e-005
3.4825	8.9045e-007
3.4875	0.000126888
3.4925	6.16536e-006
3.4975	3.59226e-007
3.5025	5.35743e-006
3.5075	5.65552e-007
3.5125	0.000129747
3.5175	9.8301e-006
3.5225	1.90548e-006
3.5275	6.41555e-005
3.5325	3.04307e-006
3.5375	6.71573e-005
3.5425	1.05099e-005
3.5475	5.08936e-006
3.5525	0.000133378
3.5575	7.17135e-005
3.5625	0.000135605
3.5675	1.03125e-005
3.5725	1.21811e-005
3.5775	1.45126e-005
3.5825	8.15255e-005
3.5875	2.12435e-005
3.5925	0.000147332
3.5975	8.76592e-005
3.6025	9.35309e-005
3.6075	9.24398e-005
3.6125	9.81174e-005
3.6175	4.18746e-005
3.6225	4.30991e-005
3.6275	4.9142e-005
3.6325	0.000117007
3.6375	5.80292e-005
3.6425	6.12173e-005
3.6475	6.82459e-005
3.6525	6.82122e-005
3.6575	0.000135635
3.6625	8.15737e-005
3.6675	8.08199e-005
3.6725	0.000211126
3.6775	0.000147409
3.6825	0.000147343
3.6875	0.000147135
3.6925	0.000207742
3.6975	8.01517e-005
3.7025	0.000211338
3.7075	7.46554e-005
3.7125	7.2614e-005
3.7175	6.73799e-005
3.7225	0.000192782
3.7275	6.04646e-005
3.7325	5.46344e-005
3.7375	5.2778e-005
3.7425	4.61894e-005
3.7475	4.55904e-005
3.7525	0.000164278
3.7575	3.61483e-005
3.7625	9.23147e-005
3.7675	0.000149255
3.7725	2.42754e-005
3.7775	8.12241e-005
3.7825	1.70873e-005
3.7875	7.59767e-005
3.7925	1.00612e-005
3.7975	9.17862e-006
3.8025	6.59716e-006
3.8075	7.16119e-005
3.8125	1.08462e-005
3.8175	6.60635e-006
3.8225	2.81474e-006
3.8275	6.61367e-005
3.8325	7.09783e-005
3.8375	0.000127908
3.8425	0.000126732
3.8475	6.50688e-005
3.8525	6.44821e-005
3.8575	2.00483e-006
3.8625	5.46906e-006
3.8675	6.47256e-005
3.8725	3.6848e-006
3.8775	2.87244e-006
3.8825	9.46198e-007
3.8875	0.000125763
3.8925	5.63076e-008
3.8975	6.43338e-005
3.9025	0.000126528
3.9075	2.85392e-006
3.9125	4.21333e-006
3.9175	2.37901e-006
3.9225	3.27452e-006
3.9275	6.67084e-005
3.9325	6.28588e-005
3.9375	6.70794e-005
3.9425	6.28495e-005
3.9475	3.85453e-006
3.9525	3.77531e-006
3.9575	6.6097e-005
3.9625	4.48801e-006
3.9675	6.38007e-005
3.9725	1.55203e-006
3.9775	6.55701e-005
3.9825	4.52026e-006
3.9875	0.00012791
3.9925	5.52025e-009
3.9975	3.5538e-006
***
0.0025	3.48399
0.0075	3.57785
0.0125	1.83781
0.0175	1.02436
0.0225	0.686247
0.0275	0.532297
0.0325	0.42677
0.0375	0.355728
0.0425	0.304049
0.0475	0.254378
0.0525	0.21887
0.0575	0.192111
0.0625	0.166355
0.0675	0.141412
0.0725	0.12404
0.0775	0.105304
0.0825	0.089137
0.0875	0.0765066
0.0925	0.0636492
0.0975	0.0539398
0.1025	0.042755
0.1075	0.0345389
0.1125	0.0276474
0.1175	0.0209304
0.1225	0.016741
0.1275	0.0136364
0.1325	0.012882
0.1375	0.0122723
0.1425	0.0118507
0.1475	0.0113587
0.1525	0.0107712
0.1575	0.0108073
0.1625	0.0100137
0.1675	0.00984119
0.1725	0.00954515
0.1775	0.0091186
0.1825	0.00891376
0.1875	0.00859675
0.1925	0.00807635
0.1975	0.00795283
0.2025	0.00748489
0.2075	0.00778624
0.2125	0.00749509
0.2175	0.00727204
0.2225	0.00688194
0.2275	0.00676301
0.2325	0.00656968
0.2375	0.00646277
0.2425	0.00616152
0.2475	0.00569983
0.2525	0.0060615
0.2575	0.00583767
0.2625	0.00526655
0.2675	0.00547983
0.2725	0.00556766
0.2775	0.00556707
0.2825	0.0052687
0.2875	0.00518255
0.2925	0.00492547
0.2975	0.00483608
0.3025	0.00469732
0.3075	0.00459955
0.3125	0.00430983
0.3175	0.00441071
0.3225	0.00426673
0.3275	0.00427474
0.3325	0.00398541
0.3375	0.00414845
0.3425	0.00371025
0.3475	0.00399939
0.3525	0.00385298
0.3575	0.0035839
0.3625	0.00341232
0.3675	0.00349579
0.3725	0.00340682
0.3775	0.00323197
0.3825	0.00319648
0.3875	0.00337036
0.3925	0.00305782
0.3975	0.00305337
0.4025	0.00290449
0.4075	0.0026689
0.4125	0.00294243
0.4175	0.00277391
0.4225	0.00277108
0.4275	0.00245433
0.4325	0.00251319
0.4375	0.00239982
0.4425	0.00218451
0.4475	0.00225139
0.4525	0.00218072
0.4575	0.00217305
0.4625	0.00217103
0.4675	0.00215311
0.4725	0.00197888
0.4775	0.00211881
0.4825	0.00195924
0.4875	0.00195936
0.4925	0.0017889
0.4975	0.0018424
0.5025	0.00181355
0.5075	0.00187093
0.5125	0.00197392
0.5175	0.00181128
0.5225	0.00178378
0.5275	0.00187785
0.5325	0.00182821
0.5375	0.00172437
0.5425	0.00181635
0.5475	0.00187199
0.5525	0.00177858
0.5575	0.00179276
0.5625	0.0018383
0.5675	0.00175904
0.5725	0.00180103
0.5775	0.00193001
0.5825	0.00179228
0.5875	0.0019283
0.5925	0.0019427
0.5975	0.00182652
0.6025	0.00186539
0.6075	0.00178588
0.6125	0.00193876
0.6175	0.00178453
0.6225	0.00180491
0.6275	0.00182203
0.6325	0.00168386
0.6375	0.0017796
0.6425	0.00162567
0.6475	0.00168778
0.6525	0.00173577
0.6575	0.00160857
0.6625	0.00181039
0.6675	0.00180008
0.6725	0.00171957
0.6775	0.00179773
0.6825	0.00185779
0.6875	0.00188894
0.6925	0.00180581
0.6975	0.00202224
0.7025	0.002121
0.7075	0.0021893
0.7125	0.00226626
0.7175	0.0023685
0.7225	0.00226541
0.7275	0.00236162
0.7325	0.00239422
0.7375	0.0025375
0.7425	0.0026511
0.7475	0.00276294
0.7525	0.00300529
0.7575	0.00330041
0.7625	0.00435422
0.7675	0.0059112
0.7725	0.00877679
0.7775	0.011554
0.7825	0.0125903
0.7875	0.0109152
0.7925	0.00787268
0.7975	0.00506313
0.8025	0.00335328
0.8075	0.00240833
0.8125	0.00200453
0.8175	0.0017275
0.8225	0.00153382
0.8275	0.00150956
0.8325	0.001379
0.8375	0.00120388
0.8425	0.00114313
0.8475	0.00119194
0.8525	0.00112665
0.8575	0.00103029
0.8625	0.00100055
0.8675	0.000850803
0.8725	0.000940615
0.8775	0.000904093
0.8825	0.000852441
0.8875	0.000900556
0.8925	0.000837882
0.8975	0.00080671
0.9025	0.000776047
0.9075	0.000831801
0.9125	0.000662752
0.9175	0.000741959
0.9225	0.000748197
0.9275	0.000669227
0.9325	0.000683859
0.9375	0.000780545
0.9425	0.000717582
0.9475	0.000663616
0.9525	0.000645646
0.9575	0.000768693
0.9625	0.000693347
0.9675	0.000649252
0.9725	0.000651576
0.9775	0.000729183
0.9825	0.000787207
0.9875	0.000924767
0.9925	0.00115554
0.9975	0.00196067
1.0025	0.00328514
1.0075	0.00563883
1.0125	0.00854075
1.0175	0.0105691
1.0225	0.0102733
1.0275	0.00795324
1.0325	0.00528526
1.0375	0.00282638
1.0425	0.00152618
1.0475	0.001016
1.0525	0.00074427
1.0575	0.000600149
1.0625	0.000566393
1.0675	0.000501776
1.0725	0.000535417
1.0775	0.000587803
1.0825	0.00046736
1.0875	0.000419364
1.0925	0.000434432
1.0975	0.000494084
1.1025	0.000415647
1.1075	0.000575645
1.1125	0.000387762
1.1175	0.00039347
1.1225	0.000505981
1.1275	0.000432342
1.1325	0.000392807
1.1375	0.000443117
1.1425	0.000432669
1.1475	0.000391369
1.1525	0.000345944
1.1575	0.000391669
1.1625	0.000421079
1.1675	0.000383664
1.1725	0.000425723
1.1775	0.000391286
1.1825	0.000310582
1.1875	0.000338448
1.1925	0.000346743
1.1975	0.000282642
1.2025	0.000312206
1.2075	0.000363244
1.2125	0.000318436
1.2175	0.000296578
1.2225	0.000347682
1.2275	0.000303968
1.2325	0.000400102
1.2375	0.00028445
1.2425	0.000301437
1.2475	0.000303015
1.2525	0.000269828
1.2575	0.00028785
1.2625	0.000321259
1.2675	0.000198107
1.2725	0.000301845
1.2775	0.000338744
1.2825	0.000212362
1.2875	0.000273254
1.2925	0.000268141
1.2975	0.000286621
1.3025	0.000254594
1.3075	0.000228996
1.3125	0.000234537
1.3175	0.000303009
1.3225	0.00029629
1.3275	0.000297091
1.3325	0.000304168
1.3375	0.0002086
1.3425	0.000227885
1.3475	0.000259139
1.3525	0.000284384
1.3575	0.000271502
1.3625	0.000238007
1.3675	0.000158582
1.3725	0.000221194
1.3775	0.000206412
1.3825	0.000233717
1.3875	0.000201645
1.3925	0.000256633
1.3975	0.000194461
1.4025	0.000263488
1.4075	0.000193314
1.4125	0.000176657
1.4175	0.000238628
1.4225	0.000180541
1.4275	0.000192769
1.4325	0.000182138
1.4375	0.000250588
1.4425	0.000199973
1.4475	0.000199068
1.4525	0.000174862
1.4575	0.000124759
1.4625	0.00021804
1.4675	0.000211384
1.4725	0.000180907
1.4775	0.000131434
1.4825	0.000143011
1.4875	0.00018059
1.4925	0.000160955
1.4975	0.000154338
1.5025	0.0002236
1.5075	0.000217404
1.5125	0.000160421
1.5175	0.000206306
1.5225	0.000229725
1.5275	0.000217652
1.5325	0.000229664
1.5375	0.000149816
1.5425	0.000179185
1.5475	0.000148849
1.5525	0.00011616
1.5575	0.000203644
1.5625	0.000172583
1.5675	0.000128317
1.5725	0.000134457
1.5775	0.000167692
1.5825	0.000146805
1.5875	0.000172784
1.5925	0.000153007
1.5975	9.19194e-005
1.6025	0.000160446
1.6075	0.000165497
1.6125	0.000178439
1.6175	0.000155086
1.6225	0.000122399
1.6275	0.000129367
1.6325	0.000135329
1.6375	8.96542e-005
1.6425	9.68864e-005
1.6475	0.000196445
1.6525	0.00015366
1.6575	0.000165244
1.6625	0.000115301
1.6675	0.000108758
1.6725	0.000121259
1.6775	0.000114908
1.6825	0.000153425
1.6875	7.73251e-005
1.6925	0.000121157
1.6975	0.000108978
1.7025	0.000146435
1.7075	0.000108558
1.7125	0.000165141
1.7175	0.000140716
1.7225	0.000141196
1.7275	7.13485e-005
1.7325	0.000170797
1.7375	6.50131e-005
1.7425	0.000108405
1.7475	0.000109662
1.7525	0.000178895
1.7575	0.000126622
1.7625	0.000108598
1.7675	0.000115314
1.7725	8.31233e-005
1.7775	0.000108022
1.7825	0.000158352
1.7875	0.000134281
1.7925	0.000177294
1.7975	0.000133175
1.8025	6.40492e-005
1.8075	0.000120794
1.8125	0.000107882
1.8175	8.3554e-005
1.8225	0.000108427
1.8275	8.93938e-005
1.8325	8.33409e-005
1.8375	8.32372e-005
1.8425	0.000108021
1.8475	9.56479e-005
1.8525	8.98059e-005
1.8575	9.57438e-005
1.8625	0.000127235
1.8675	8.90579e-005
1.8725	9.59314e-005
1.8775	0.000101856
1.8825	8.31331e-005
1.8875	0.00010755
1.8925	7.05759e-005
1.8975	7.68291e-005
1.9025	0.000108429
1.9075	9.64363e-005
1.9125	0.000120489
1.9175	0.00010768
1.9225	0.000101828
1.9275	7.64881e-005
1.9325	8.32208e-005
1.9375	7.62465e-005
1.9425	8.94375e-005
1.9475	8.33914e-005
1.9525	7.65592e-005
1.9575	8.31385e-005
1.9625	7.07756e-005
1.9675	7.67911e-005
1.9725	0.000107999
1.9775	6.99544e-005
1.9825	6.39372e-005
1.9875	8.9324e-005
1.9925	8.28093e-005
1.9975	8.24898e-005
2.0025	6.40917e-005
2.0075	3.24466e-005
2.0125	8.95287e-005
2.0175	7.63583e-005
2.0225	0.000114176
2.0275	8.91784e-005
2.0325	0.000101309
2.0375	7.01511e-005
2.0425	6.34988e-005
2.0475	7.06172e-005
2.0525	7.63863e-005
2.0575	6.40479e-005
2.0625	7.06151e-005
2.0675	5.72407e-005
2.0725	8.89195e-005
2.0775	9.48769e-005
2.0825	9.5035e-005
2.0875	7.6903e-005
2.0925	9.54407e-005
2.0975	5.70428e-005
2.1025	6.41644e-005
2.1075	6.35138e-005
2.1125	5.11046e-005
2.1175	9.50528e-005
2.1225	4.52389e-005
2.1275	8.84073e-005
2.1325	7.61925e-005
2.1375	2.5786e-005
2.1425	6.98242e-005
2.1475	6.95893e-005
2.1525	6.99239e-005
2.1575	3.81406e-005
2.1625	7.00156e-005
2.1675	5.07553e-005
2.1725	5.13128e-005
2.1775	5.70883e-005
2.1825	4.51913e-005
2.1875	6.37561e-005
2.1925	6.3273e-005
2.1975	6.33845e-005
2.2025	6.32245e-005
2.2075	6.36504e-005
2.2125	6.33314e-005
2.2175	7.0055e-005
2.2225	2.59036e-005
2.2275	1.96355e-005
2.2325	5.09956e-005
2.2375	5.72141e-005
2.2425	4.46303e-005
2.2475	5.75488e-005
2.2525	5.77539e-005
2.2575	3.21272e-005
2.2625	6.32464e-005
2.2675	6.35838e-005
2.2725	3.19882e-005
2.2775	2.57354e-005
2.2825	2.57637e-005
2.2875	6.97464e-005
2.2925	3.19521e-005
2.2975	5.09889e-005
2.3025	3.1872e-005
2.3075	2.57464e-005
2.3125	2.56093e-005
2.3175	4.42502e-005
2.3225	3.20904e-005
2.3275	7.60412e-005
2.3325	5.08071e-005
2.3375	3.26376e-005
2.3425	3.8085e-005
2.3475	6.91402e-006
2.3525	2.55703e-005
2.3575	6.31169e-005
2.3625	3.19443e-005
2.3675	3.21621e-005
2.3725	1.941e-005
2.3775	3.20998e-005
2.3825	3.92297e-005
2.3875	1.98032e-005
2.3925	3.82795e-005
2.3975	4.44426e-005
2.4025	3.16731e-005
2.4075	6.74131e-006
2.4125	2.57749e-005
2.4175	2.56888e-005
2.4225	4.45386e-005
2.4275	2.53954e-005
2.4325	3.18489e-005
2.4375	1.91778e-005
2.4425	5.68094e-005
2.4475	3.80065e-005
2.4525	6.88749e-006
2.4575	2.5584e-005
2.4625	3.80941e-005
2.4675	3.8067e-005
2.4725	3.15859e-005
2.4775	2.56612e-005
2.4825	3.20063e-005
2.4875	3.17811e-005
2.4925	1.93245e-005
2.4975	2.55101e-005
2.5025	1.31375e-005
2.5075	1.92267e-005
2.5125	2.54181e-005
2.5175	5.11326e-005
2.5225	3.21927e-005
2.5275	5.10007e-005
2.5325	3.19124e-005
2.5375	1.32561e-005
2.5425	1.90198e-005
2.5475	2.54557e-005
2.5525	3.1834e-005
2.5575	3.2034e-005
2.5625	2.55119e-005
2.5675	1.29939e-005
2.5725	3.19168e-005
2.5775	2.54542e-005
2.5825	2.54461e-005
2.5875	2.55037e-005
2.5925	2.55355e-005
2.5975	3.81469e-005
2.6025	1.91973e-005
2.6075	1.29028e-005
2.6125	6.601e-006
2.6175	1.30018e-005
2.6225	1.29826e-005
2.6275	3.16732e-005
2.6325	2.54684e-005
2.6375	5.66601e-005
2.6425	1.29799e-005
2.6475	3.79266e-005
2.6525	2.5525e-005
2.6575	2.53754e-005
2.6625	1.90594e-005
2.6675	1.27704e-005
2.6725	1.925e-005
2.6775	2.56258e-005
2.6825	2.53752e-005
2.6875	1.91672e-005
2.6925	2.55118e-005
2.6975	5.06572e-005
2.7025	6.6066e-006
2.7075	2.54598e-005
2.7125	1.28434e-005
2.7175	1.908e-005
2.7225	4.43061e-005
2.7275	1.92303e-005
2.7325	1.30915e-005
2.7375	6.56913e-006
2.7425	1.90906e-005
2.7475	6.59554e-006
2.7525	3.19445e-005
2.7575	1.28016e-005
2.7625	6.6708e-006
2.7675	1.91815e-005
2.7725	6.41704e-006
2.7775	1.28822e-005
2.7825	2.56303e-005
2.7875	1.28418e-005
2.7925	1.91342e-005
2.7975	1.31164e-005
2.8025	3.09245e-007
2.8075	3.17428e-005
2.8125	1.91059e-005
2.8175	1.91227e-005
2.8225	6.43179e-006
2.8275	1.27641e-005
2.8325	6.43435e-006
2.8375	3.00433e-007
2.8425	2.59152e-005
2.8475	1.93068e-005
2.8525	2.52726e-005
2.8575	3.0012e-007
2.8625	1.29142e-005
2.8675	6.85075e-006
2.8725	1.2882e-005
2.8775	1.28853e-005
2.8825	1.29625e-005
2.8875	1.97134e-005
2.8925	6.58617e-006
2.8975	1.28358e-005
2.9025	6.55208e-006
2.9075	3.16512e-005
2.9125	1.93176e-005
2.9175	1.93595e-005
2.9225	1.32459e-005
2.9275	1.33131e-005
2.9325	7.63772e-007
2.9375	1.44955e-005
2.9425	1.4056e-005
2.9475	1.43947e-005
2.9525	1.50567e-005
2.9575	2.23607e-005
2.9625	1.79773e-005
2.9675	1.30091e-005
2.9725	2.32351e-005
2.9775	1.41682e-005
2.9825	2.52494e-005
2.9875	3.23593e-005
2.9925	4.08043e-005
2.9975	6.59283e-005
3.0025	6.74212e-005
3.0075	9.50931e-005
3.0125	0.000115257
3.0175	0.000139961
3.0225	0.000157029
3.0275	0.000210203
3.0325	0.00024141
3.0375	0.000276242
3.0425	0.000314092
3.0475	0.000360458
3.0525	0.000419376
3.0575	0.00046907
3.0625	0.000533892
3.0675	0.000564299
3.0725	0.000620678
3.0775	0.000654096
3.0825	0.000687235
3.0875	0.000710796
3.0925	0.000723674
3.0975	0.000724132
3.1025	0.000723537
3.1075	0.000704033
3.1125	0.000677149
3.1175	0.000635274
3.1225	0.000585992
3.1275	0.00055136
3.1325	0.000506087
3.1375	0.000450068
3.1425	0.000398322
3.1475	0.00035446
3.1525	0.000297272
3.1575	0.00024589
3.1625	0.000197392
3.1675	0.000167366
3.1725	0.000139666
3.1775	0.000101929
3.1825	8.18823e-005
3.1875	7.27995e-005
3.1925	7.27108e-005
3.1975	4.00477e-005
3.2025	3.85594e-005
3.2075	3.08317e-005
3.2125	1.88337e-005
3.2175	1.55906e-005
3.2225	1.91602e-005
3.2275	1.08461e-005
3.2325	1.58196e-005
3.2375	1.43225e-005
3.2425	7.84675e-006
3.2475	7.00293e-006
3.2525	7.00161e-006
3.2575	1.30324e-005
3.2625	6.37863e-007
3.2675	1.38144e-005
3.2725	3.68845e-007
3.2775	2.67899e-007
3.2825	6.49247e-006
3.2875	6.49349e-006
3.2925	1.75179e-007
3.2975	1.33914e-007
3.3025	6.54147e-006
3.3075	6.43213e-006
3.3125	6.63452e-006
3.3175	4.72277e-008
3.3225	3.56805e-007
3.3275	1.25977e-005
3.3325	6.38125e-006
3.3375	2.53894e-005
3.3425	1.26572e-005
3.3475	2.48421e-007
3.3525	6.52315e-006
3.3575	6.42186e-006
3.3625	2.45729e-007
3.3675	1.91124e-007
3.3725	6.42912e-006
3.3775	2.92363e-007
3.3825	1.26279e-005
3.3875	1.93127e-007
3.3925	1.89345e-005
3.3975	7.63774e-008
3.4025	2.52912e-005
3.4075	9.69793e-008
3.4125	6.40565e-006
3.4175	6.33468e-006
3.4225	6.39683e-006
3.4275	1.13938e-007
3.4325	1.14777e-007
3.4375	1.77221e-007
3.4425	1.26002e-005
3.4475	1.27438e-005
3.4525	2.28501e-007
3.4575	6.53581e-006
3.4625	6.40972e-006
3.4675	1.48616e-007
3.4725	2.51915e-005
3.4775	2.47015e-007
3.4825	6.37427e-006
3.4875	2.42315e-007
3.4925	6.41314e-006
3.4975	7.66897e-008
3.5025	1.59599e-007
3.5075	6.54501e-006
3.5125	2.38909e-007
3.5175	6.57735e-006
3.5225	1.27327e-005
3.5275	2.07618e-007
3.5325	6.66364e-006
3.5375	4.62546e-007
3.5425	6.71468e-006
3.5475	1.3265e-005
3.5525	7.98367e-007
3.5575	7.08758e-006
3.5625	9.451e-007
3.5675	1.31215e-006
3.5725	1.42771e-006
3.5775	1.63674e-006
3.5825	8.0933e-006
3.5875	8.59447e-006
3.5925	2.54789e-006
3.5975	9.18281e-006
3.6025	3.24118e-006
3.6075	3.69204e-006
3.6125	1.04463e-005
3.6175	4.48002e-006
3.6225	1.14236e-005
3.6275	5.6503e-006
3.6325	1.23976e-005
3.6375	1.25874e-005
3.6425	6.94841e-006
3.6475	7.38064e-006
3.6525	1.43269e-005
3.6575	8.99255e-006
3.6625	8.55011e-006
3.6675	2.756e-005
3.6725	1.52735e-005
3.6775	9.23018e-006
3.6825	9.044e-006
3.6875	9.19083e-006
3.6925	1.52683e-005
3.6975	1.52968e-005
3.7025	2.11603e-005
3.7075	8.49132e-006
3.7125	8.06771e-006
3.7175	7.61192e-006
3.7225	1.3594e-005
3.7275	6.72648e-006
3.7325	6.36356e-006
3.7375	5.80218e-006
3.7425	1.17504e-005
3.7475	5.02012e-006
3.7525	1.05904e-005
3.7575	1.02332e-005
3.7625	3.57852e-006
3.7675	3.20491e-006
3.7725	2.69805e-006
3.7775	2.32466e-006
3.7825	1.9697e-006
3.7875	1.77173e-006
3.7925	7.7725e-006
3.7975	1.38197e-005
3.8025	9.28156e-007
3.8075	9.79324e-007
3.8125	1.32031e-005
3.8175	5.92603e-007
3.8225	4.79274e-007
3.8275	6.67561e-006
3.8325	6.61796e-006
3.8375	3.76627e-007
3.8425	1.28524e-005
3.8475	1.28772e-005
3.8525	2.12883e-007
3.8575	2.36872e-007
3.8625	1.28825e-007
3.8675	6.3802e-006
3.8725	6.09191e-007
3.8775	6.33552e-006
3.8825	9.90037e-008
3.8875	3.87691e-008
3.8925	4.3814e-008
3.8975	6.36195e-006
3.9025	6.21717e-008
3.9075	5.55491e-008
3.9125	3.27798e-009
3.9175	4.14677e-008
3.9225	6.34012e-006
3.9275	1.15016e-007
3.9325	1.23902e-009
3.9375	5.4602e-008
3.9425	2.92272e-007
3.9475	1.03976e-007
3.9525	1.05233e-007
3.9575	6.32457e-006
3.9625	6.31373e-006
3.9675	6.41361e-006
3.9725	6.36951e-006
3.9775	9.4353e-008
3.9825	6.2847e-006
3.9875	6.42281e-006
3.9925	6.44788e-006
3.9975	6.49146e-008
***
0.0025	0.117497
0.0075	0.13851
0.0125	0.0830364
0.0175	0.0468314
0.0225	0.0303674
0.0275	0.0222979
0.0325	0.017789
0.0375	0.014809
0.0425	0.0123828
0.0475	0.0105045
0.0525	0.00893941
0.0575	0.00774202
0.0625	0.00669873
0.0675	0.00581036
0.0725	0.00501873
0.0775	0.00424371
0.0825	0.00361792
0.0875	0.00301639
0.0925	0.0025888
0.0975	0.00214695
0.1025	0.00174242
0.1075	0.00142309
0.1125	0.00114833
0.1175	0.000917407
0.1225	0.000730546
0.1275	0.000634204
0.1325	0.000552002
0.1375	0.000510478
0.1425	0.000496956
0.1475	0.000473558
0.1525	0.000446305
0.1575	0.000443427
0.1625	0.000425763
0.1675	0.000404345
0.1725	0.000391018
0.1775	0.000390319
0.1825	0.000357957
0.1875	0.000350444
0.1925	0.000337852
0.1975	0.000332484
0.2025	0.000316831
0.2075	0.000300025
0.2125	0.000287593
0.2175	0.000283493
0.2225	0.000278475
0.2275	0.000277491
0.2325	0.000254971
0.2375	0.000249113
0.2425	0.000244346
0.2475	0.000241569
0.2525	0.000231113
0.2575	0.000220497
0.2625	0.000220626
0.2675	0.000215591
0.2725	0.00020025
0.2775	0.000195442
0.2825	0.000196649
0.2875	0.000193659
0.2925	0.00018937
0.2975	0.000177853
0.3025	0.000178004
0.3075	0.000171683
0.3125	0.000159851
0.3175	0.000167185
0.3225	0.00015363
0.3275	0.000151146
0.3325	0.000143643
0.3375	0.000147242
0.3425	0.000135387
0.3475	0.000131335
0.3525	0.000137526
0.3575	0.000129317
0.3625	0.000120246
0.3675	0.000111499
0.3725	0.000114685
0.3775	0.000124479
0.3825	0.000113461
0.3875	0.000106922
0.3925	0.000101352
0.3975	9.99745e-005
0.4025	0.000102235
0.4075	9.51776e-005
0.4125	8.94825e-005
0.4175	8.82651e-005
0.4225	8.19191e-005
0.4275	8.06336e-005
0.4325	8.24315e-005
0.4375	7.39413e-005
0.4425	7.85705e-005
0.4475	7.0727e-005
0.4525	7.40176e-005
0.4575	7.05827e-005
0.4625	7.24276e-005
0.4675	6.75107e-005
0.4725	6.12856e-005
0.4775	5.52979e-005
0.4825	5.82072e-005
0.4875	5.83877e-005
0.4925	5.81309e-005
0.4975	4.80444e-005
0.5025	5.28579e-005
0.5075	5.20743e-005
0.5125	5.11281e-005
0.5175	4.83796e-005
0.5225	5.71059e-005
0.5275	4.95729e-005
0.5325	4.90293e-005
0.5375	4.59208e-005
0.5425	4.28621e-005
0.5475	4.45167e-005
0.5525	4.69753e-005
0.5575	4.55756e-005
0.5625	5.24578e-005
0.5675	4.47631e-005
0.5725	4.55972e-005
0.5775	5.55761e-005
0.5825	5.02887e-005
0.5875	4.90574e-005
0.5925	4.87204e-005
0.5975	5.92862e-005
0.6025	5.46634e-005
0.6075	4.70324e-005
0.6125	4.98292e-005
0.6175	5.30911e-005
0.6225	5.34396e-005
0.6275	4.88024e-005
0.6325	4.82624e-005
0.6375	4.77977e-005
0.6425	5.33774e-005
0.6475	4.43582e-005
0.6525	4.43175e-005
0.6575	4.7833e-005
0.6625	5.14385e-005
0.6675	5.46832e-005
0.6725	4.66242e-005
0.6775	4.99015e-005
0.6825	5.51004e-005
0.6875	5.4897e-005
0.6925	5.85324e-005
0.6975	5.82932e-005
0.7025	6.08776e-005
0.7075	6.27485e-005
0.7125	5.95975e-005
0.7175	6.2637e-005
0.7225	6.88467e-005
0.7275	7.48275e-005
0.7325	7.09731e-005
0.7375	8.13552e-005
0.7425	8.60452e-005
0.7475	8.74281e-005
0.7525	0.000104551
0.7575	0.000115678
0.7625	0.00016079
0.7675	0.000229353
0.7725	0.000313603
0.7775	0.000387064
0.7825	0.000408198
0.7875	0.000360101
0.7925	0.000276711
0.7975	0.000188073
0.8025	0.00012702
0.8075	8.71507e-005
0.8125	6.63384e-005
0.8175	4.79715e-005
0.8225	4.56561e-005
0.8275	4.16733e-005
0.8325	4.32792e-005
0.8375	3.32297e-005
0.8425	2.74557e-005
0.8475	2.68402e-005
0.8525	2.47692e-005
0.8575	2.87487e-005
0.8625	2.7593e-005
0.8675	2.32754e-005
0.8725	2.77642e-005
0.8775	2.57861e-005
0.8825	2.13977e-005
0.8875	2.18073e-005
0.8925	1.89562e-005
0.8975	2.1602e-005
0.9025	1.72692e-005
0.9075	1.7572e-005
0.9125	1.86639e-005
0.9175	2.12767e-005
0.9225	2.07331e-005
0.9275	1.43701e-005
0.9325	2.004e-005
0.9375	2.11399e-005
0.9425	1.18905e-005
0.9475	1.98574e-005
0.9525	1.62545e-005
0.9575	2.20776e-005
0.9625	2.19131e-005
0.9675	1.99963e-005
0.9725	2.13744e-005
0.9775	2.16924e-005
0.9825	2.33055e-005
0.9875	3.16838e-005
0.9925	5.83923e-005
0.9975	8.47773e-005
1.0025	0.000149536
1.0075	0.000229454
1.0125	0.000304997
1.0175	0.000353398
1.0225	0.000339802
1.0275	0.000283813
1.0325	0.000199183
1.0375	0.000130645
1.0425	7.48446e-005
1.0475	3.90803e-005
1.0525	2.52055e-005
1.0575	1.97408e-005
1.0625	2.27917e-005
1.0675	1.72608e-005
1.0725	1.46896e-005
1.0775	1.61033e-005
1.0825	1.29482e-005
1.0875	1.32013e-005
1.0925	1.41683e-005
1.0975	1.13782e-005
1.1025	1.82586e-005
1.1075	1.47942e-005
1.1125	9.85768e-006
1.1175	6.35334e-006
1.1225	8.91265e-006
1.1275	6.32206e-006
1.1325	1.69419e-005
1.1375	1.11313e-005
1.1425	8.03079e-006
1.1475	1.05111e-005
1.1525	9.06577e-006
1.1575	8.36894e-006
1.1625	9.00689e-006
1.1675	9.60475e-006
1.1725	1.27958e-005
1.1775	1.13546e-005
1.1825	7.64758e-006
1.1875	1.25443e-005
1.1925	1.06871e-005
1.1975	8.125e-006
1.2025	8.10744e-006
1.2075	9.32414e-006
1.2125	6.18193e-006
1.2175	9.28221e-006
1.2225	9.33808e-006
1.2275	6.77445e-006
1.2325	6.74636e-006
1.2375	9.22167e-006
1.2425	6.09317e-006
1.2475	7.34594e-006
1.2525	6.70055e-006
1.2575	9.83933e-006
1.2625	7.28704e-006
1.2675	9.18616e-006
1.2725	8.5573e-006
1.2775	7.90055e-006
1.2825	3.47456e-006
1.2875	5.33696e-006
1.2925	2.82985e-006
1.2975	8.44167e-006
1.3025	6.67602e-006
1.3075	9.77298e-006
1.3125	1.09636e-005
1.3175	5.3319e-006
1.3225	7.76808e-006
1.3275	7.83543e-006
1.3325	2.77539e-006
1.3375	4.64581e-006
1.3425	8.3425e-006
1.3475	5.8671e-006
1.3525	9.62687e-006
1.3575	6.54224e-006
1.3625	8.98185e-006
1.3675	3.9964e-006
1.3725	6.46645e-006
1.3775	7.09251e-006
1.3825	6.5248e-006
1.3875	7.71743e-006
1.3925	7.09178e-006
1.3975	4.5653e-006
1.4025	8.38286e-006
1.4075	4.56397e-006
1.4125	7.07242e-006
1.4175	7.10554e-006
1.4225	3.95721e-006
1.4275	5.18932e-006
1.4325	7.69299e-006
1.4375	3.91114e-006
1.4425	7.06043e-006
1.4475	6.43937e-006
1.4525	3.94707e-006
1.4575	3.27876e-006
1.4625	5.80164e-006
1.4675	8.94327e-006
1.4725	8.92419e-006
1.4775	5.1385e-006
1.4825	5.13582e-006
1.4875	8.30882e-006
1.4925	4.50502e-006
1.4975	5.79137e-006
1.5025	3.88976e-006
1.5075	5.12052e-006
1.5125	3.29215e-006
1.5175	6.42558e-006
1.5225	3.24808e-006
1.5275	3.87295e-006
1.5325	1.01455e-005
1.5375	4.50269e-006
1.5425	2.59346e-006
1.5475	3.27621e-006
1.5525	3.22934e-006
1.5575	4.51429e-006
1.5625	4.47361e-006
1.5675	5.08426e-006
1.5725	3.22045e-006
1.5775	8.2739e-006
1.5825	3.83381e-006
1.5875	2.58881e-006
1.5925	5.11065e-006
1.5975	5.74618e-006
1.6025	5.1046e-006
1.6075	6.35449e-006
1.6125	5.11369e-006
1.6175	6.97264e-006
1.6225	3.84388e-006
1.6275	4.44862e-006
1.6325	6.35589e-006
1.6375	3.86216e-006
1.6425	4.48354e-006
1.6475	5.0969e-006
1.6525	4.46498e-006
1.6575	3.18323e-006
1.6625	4.44793e-006
1.6675	2.60553e-006
1.6725	3.23343e-006
1.6775	4.45784e-006
1.6825	1.93427e-006
1.6875	5.70813e-006
1.6925	5.73208e-006
1.6975	6.96257e-006
1.7025	2.58314e-006
1.7075	3.19973e-006
1.7125	2.56187e-006
1.7175	6.97482e-006
1.7225	5.69296e-006
1.7275	3.81428e-006
1.7325	3.1969e-006
1.7375	3.18179e-006
1.7425	5.70311e-006
1.7475	3.80747e-006
1.7525	3.17962e-006
1.7575	1.92825e-006
1.7625	5.08531e-006
1.7675	2.56404e-006
1.7725	3.81461e-006
1.7775	1.94373e-006
1.7825	3.20904e-006
1.7875	3.80497e-006
1.7925	1.3175e-006
1.7975	2.59126e-006
1.8025	2.54438e-006
1.8075	3.19036e-006
1.8125	1.93619e-006
1.8175	1.29821e-006
1.8225	2.57287e-006
1.8275	5.70927e-006
1.8325	1.92751e-006
1.8375	3.19138e-006
1.8425	3.81093e-006
1.8475	4.42527e-006
1.8525	2.58065e-006
1.8575	2.53286e-006
1.8625	3.17946e-006
1.8675	2.54022e-006
1.8725	3.17685e-006
1.8775	2.54122e-006
1.8825	1.91189e-006
1.8875	1.29388e-006
1.8925	1.94905e-006
1.8975	3.79263e-006
1.9025	3.80615e-006
1.9075	1.92044e-006
1.9125	2.54918e-006
1.9175	5.6915e-006
1.9225	4.43438e-006
1.9275	5.6959e-006
1.9325	4.23835e-008
1.9375	2.54422e-006
1.9425	1.91366e-006
1.9475	1.90911e-006
1.9525	1.27409e-006
1.9575	1.91605e-006
1.9625	5.05607e-006
1.9675	1.91597e-006
1.9725	3.79969e-006
1.9775	1.28457e-006
1.9825	1.27628e-006
1.9875	4.4213e-006
1.9925	3.78993e-006
1.9975	1.29068e-006
2.0025	2.53536e-006
2.0075	3.16974e-006
2.0125	6.65341e-007
2.0175	2.53163e-006
2.0225	1.27561e-006
2.0275	1.91256e-006
2.0325	3.79234e-006
2.0375	3.16303e-006
2.0425	3.79428e-006
2.0475	1.91243e-006
2.0525	6.41657e-007
2.0575	1.90877e-006
2.0625	4.43343e-006
2.0675	2.53222e-006
2.0725	4.42827e-006
2.0775	3.77871e-006
2.0825	3.80157e-006
2.0875	3.16627e-006
2.0925	5.05124e-006
2.0975	1.90261e-006
2.1025	3.79244e-006
2.1075	2.53641e-006
2.1125	1.90891e-006
2.1175	1.28293e-006
2.1225	1.69763e-008
2.1275	3.15177e-006
2.1325	3.79555e-006
2.1375	1.90458e-006
2.1425	5.67133e-006
2.1475	3.1659e-006
2.1525	1.90647e-006
2.1575	1.91675e-006
2.1625	1.26704e-006
2.1675	1.90118e-006
2.1725	1.27817e-006
2.1775	3.79083e-006
2.1825	2.52742e-006
2.1875	3.14722e-006
2.1925	3.1605e-006
2.1975	1.26919e-006
2.2025	1.90033e-006
2.2075	1.91546e-006
2.2125	1.281e-006
2.2175	2.52815e-006
2.2225	1.9082e-006
2.2275	1.26686e-006
2.2325	1.91136e-006
2.2375	1.91339e-006
2.2425	6.44099e-007
2.2475	1.90026e-006
2.2525	6.47437e-007
2.2575	6.72696e-007
2.2625	3.15827e-006
2.2675	3.15948e-006
2.2725	2.5375e-006
2.2775	1.26614e-006
2.2825	1.89712e-006
2.2875	1.9094e-006
2.2925	1.9001e-006
2.2975	1.90653e-006
2.3025	1.89488e-006
2.3075	2.52756e-006
2.3125	1.90388e-006
2.3175	1.89417e-006
2.3225	6.58022e-007
2.3275	1.27017e-006
2.3325	1.27939e-006
2.3375	1.27261e-006
2.3425	3.7835e-006
2.3475	1.30772e-008
2.3525	1.8906e-006
2.3575	6.39554e-007
2.3625	1.44537e-008
2.3675	1.26894e-006
2.3725	3.67346e-008
2.3775	1.27305e-006
2.3825	1.89813e-006
2.3875	2.52529e-006
2.3925	1.89496e-006
2.3975	2.45737e-008
2.4025	3.14458e-006
2.4075	1.89469e-006
2.4125	1.26568e-006
2.4175	1.2617e-006
2.4225	1.27301e-006
2.4275	6.39842e-007
2.4325	3.14856e-006
2.4375	1.89733e-006
2.4425	6.37193e-007
2.4475	1.89724e-006
2.4525	6.37385e-007
2.4575	1.89727e-006
2.4625	6.42666e-007
2.4675	1.26438e-006
2.4725	1.89731e-006
2.4775	6.39258e-007
2.4825	1.89035e-006
2.4875	1.92738e-006
2.4925	1.89629e-006
2.4975	1.26504e-006
2.5025	1.26793e-006
2.5075	1.89968e-006
2.5125	1.44225e-008
2.5175	1.889e-006
2.5225	3.14647e-006
2.5275	1.89826e-006
2.5325	4.24882e-008
2.5375	1.89566e-006
2.5425	1.05112e-008
2.5475	1.89463e-006
2.5525	1.26376e-006
2.5575	6.42478e-007
2.5625	2.52016e-006
2.5675	8.48489e-009
2.5725	1.26579e-006
2.5775	6.43135e-007
2.5825	6.36673e-007
2.5875	2.52866e-006
2.5925	6.3745e-007
2.5975	6.33556e-007
2.6025	6.35176e-007
2.6075	1.29876e-008
2.6125	1.26408e-006
2.6175	6.39685e-007
2.6225	6.40753e-007
2.6275	1.26165e-006
2.6325	9.82502e-009
2.6375	2.51804e-006
2.6425	1.27507e-006
2.6475	1.26999e-006
2.6525	1.26498e-006
2.6575	1.89253e-006
2.6625	7.69758e-009
2.6675	1.26336e-006
2.6725	6.42157e-007
2.6775	6.39446e-007
2.6825	2.5277e-006
2.6875	6.37762e-007
2.6925	1.27401e-006
2.6975	6.418e-007
2.7025	6.33618e-007
2.7075	6.36841e-007
2.7125	1.90434e-006
2.7175	6.33644e-007
2.7225	6.38231e-007
2.7275	6.44546e-007
2.7325	1.8882e-006
2.7375	7.0376e-009
2.7425	1.28519e-008
2.7475	1.12986e-008
2.7525	1.89079e-006
2.7575	1.26738e-006
2.7625	6.37754e-007
2.7675	1.89316e-006
2.7725	6.34105e-007
2.7775	6.38594e-007
2.7825	1.25984e-006
2.7875	1.53894e-008
2.7925	6.32428e-007
2.7975	4.85982e-009
2.8025	6.43485e-007
2.8075	6.40443e-007
2.8125	2.52053e-006
2.8175	1.26454e-006
2.8225	1.26583e-006
2.8275	1.89579e-006
2.8325	6.40206e-007
2.8375	1.26307e-006
2.8425	6.36974e-007
2.8475	8.86591e-009
2.8525	7.9042e-009
2.8575	1.26159e-006
2.8625	7.40421e-009
2.8675	1.67435e-008
2.8725	7.65038e-009
2.8775	6.35117e-007
2.8825	8.09072e-009
2.8875	1.2685e-006
2.8925	1.30208e-008
2.8975	6.41967e-007
2.9025	1.27981e-008
2.9075	2.94982e-008
2.9125	6.7314e-007
2.9175	6.67629e-007
2.9225	6.00186e-008
2.9275	1.3591e-006
2.9325	7.4392e-007
2.9375	7.60648e-007
2.9425	8.48026e-007
2.9475	9.00782e-007
2.9525	1.62392e-006
2.9575	5.11373e-007
2.9625	7.10717e-007
2.9675	8.85052e-007
2.9725	2.51262e-006
2.9775	2.82032e-006
2.9825	1.97718e-006
2.9875	4.59777e-006
2.9925	4.79494e-006
2.9975	4.53491e-006
3.0025	6.18721e-006
3.0075	6.73988e-006
3.0125	9.60089e-006
3.0175	1.08732e-005
3.0225	1.2735e-005
3.0275	1.44327e-005
3.0325	1.80466e-005
3.0375	2.07884e-005
3.0425	2.32056e-005
3.0475	2.66633e-005
3.0525	2.90369e-005
3.0575	3.45152e-005
3.0625	3.58694e-005
3.0675	3.80953e-005
3.0725	4.17299e-005
3.0775	4.33445e-005
3.0825	4.59233e-005
3.0875	4.81436e-005
3.0925	4.81098e-005
3.0975	5.00328e-005
3.1025	4.80986e-005
3.1075	4.83066e-005
3.1125	4.56195e-005
3.1175	4.42448e-005
3.1225	4.13981e-005
3.1275	3.9225e-005
3.1325	3.58661e-005
3.1375	3.20697e-005
3.1425	2.96883e-005
3.1475	2.74515e-005
3.1525	2.3247e-005
3.1575	1.9779e-005
3.1625	1.64629e-005
3.1675	1.36001e-005
3.1725	1.19594e-005
3.1775	1.06373e-005
3.1825	7.5086e-006
3.1875	6.12988e-006
3.1925	4.6849e-006
3.1975	3.62391e-006
3.2025	3.36861e-006
3.2075	2.71819e-006
3.2125	1.51714e-006
3.2175	1.75248e-006
3.2225	8.39776e-007
3.2275	1.83708e-006
3.2325	4.43874e-007
3.2375	3.00057e-007
3.2425	1.86188e-007
3.2475	7.44923e-007
3.2525	1.34457e-006
3.2575	7.02077e-007
3.2625	4.65802e-008
3.2675	3.74426e-008
3.2725	6.59736e-007
3.2775	6.40029e-007
3.2825	6.39987e-007
3.2875	4.12099e-009
3.2925	4.7839e-009
3.2975	6.38937e-009
3.3025	6.39164e-007
3.3075	6.62711e-009
3.3125	1.89049e-006
3.3175	3.99778e-009
3.3225	2.7738e-009
3.3275	7.42691e-009
3.3325	6.87745e-009
3.3375	8.60334e-009
3.3425	6.37836e-007
3.3475	1.38068e-008
3.3525	6.34792e-007
3.3575	4.53366e-009
3.3625	6.35121e-007
3.3675	6.31012e-007
3.3725	3.18405e-009
3.3775	3.7128e-009
3.3825	5.24059e-009
3.3875	5.54586e-009
3.3925	3.59555e-009
3.3975	2.50651e-009
3.4025	6.97036e-009
3.4075	6.32175e-007
3.4125	6.3188e-007
3.4175	6.32153e-007
3.4225	2.47545e-009
3.4275	8.79464e-010
3.4325	9.39619e-009
3.4375	6.36171e-007
3.4425	1.70848e-009
3.4475	4.15315e-009
3.4525	2.46004e-009
3.4575	6.36692e-007
3.4625	4.40073e-009
3.4675	6.30478e-007
3.4725	2.91381e-009
3.4775	4.50095e-009
3.4825	6.42798e-007
3.4875	1.00426e-008
3.4925	8.03423e-009
3.4975	6.36493e-007
3.5025	1.09446e-008
3.5075	1.2563e-008
3.5125	6.45483e-007
3.5175	1.8442e-008
3.5225	2.49564e-008
3.5275	2.83853e-008
3.5325	3.22585e-008
3.5375	3.96389e-008
3.5425	6.74487e-007
3.5475	6.15187e-008
3.5525	6.95701e-007
3.5575	7.59889e-008
3.5625	7.21927e-007
3.5675	1.05344e-007
3.5725	7.51534e-007
3.5775	1.44807e-007
3.5825	1.66305e-007
3.5875	1.44477e-006
3.5925	2.16609e-007
3.5975	2.47329e-007
3.6025	2.75658e-007
3.6075	3.02528e-007
3.6125	9.66196e-007
3.6175	3.74759e-007
3.6225	4.09845e-007
3.6275	1.07787e-006
3.6325	4.80721e-007
3.6375	5.1223e-007
3.6425	5.51462e-007
3.6475	5.88986e-007
3.6525	6.19039e-007
3.6575	6.31438e-007
3.6625	6.63576e-007
3.6675	1.93412e-006
3.6725	7.01859e-007
3.6775	7.11458e-007
3.6825	1.33442e-006
3.6875	1.34342e-006
3.6925	7.09663e-007
3.6975	1.95857e-006
3.7025	6.91187e-007
3.7075	6.66732e-007
3.7125	6.55823e-007
3.7175	6.30449e-007
3.7225	6.0798e-007
3.7275	5.67759e-007
3.7325	1.1573e-006
3.7375	4.96867e-007
3.7425	4.58985e-007
3.7475	4.1826e-007
3.7525	3.83346e-007
3.7575	3.43898e-007
3.7625	3.11835e-007
3.7675	2.76336e-007
3.7725	2.47684e-007
3.7775	2.22935e-007
3.7825	1.91263e-007
3.7875	1.64332e-007
3.7925	1.37157e-007
3.7975	1.24752e-007
3.8025	7.32024e-007
3.8075	7.16482e-007
3.8125	7.08284e-008
3.8175	5.91838e-008
3.8225	4.97884e-008
3.8275	4.2302e-008
3.8325	3.24857e-008
3.8375	2.87932e-008
3.8425	6.51283e-007
3.8475	1.54405e-008
3.8525	1.19751e-008
3.8575	1.07364e-008
3.8625	8.95427e-009
3.8675	6.35783e-007
3.8725	3.99866e-009
3.8775	7.2611e-009
3.8825	4.48391e-009
3.8875	1.48287e-009
3.8925	3.95824e-009
3.8975	3.62583e-009
3.9025	1.33409e-009
3.9075	7.0152e-010
3.9125	2.92342e-009
3.9175	1.5651e-009
3.9225	2.69312e-010
3.9275	6.3355e-007
3.9325	3.38803e-009
3.9375	1.29305e-009
3.9425	7.06603e-009
3.9475	4.03498e-011
3.9525	1.41978e-010
3.9575	3.13501e-009
3.9625	3.99366e-009
3.9675	2.48603e-009
3.9725	7.7669e-011
3.9775	1.20446e-009
3.9825	2.14943e-009
3.9875	3.13096e-009
3.9925	9.75775e-010
3.9975	1.25791e-006
***
0.0025	0.00303015
0.0075	0.00403721
0.0125	0.00275497
0.0175	0.00167628
0.0225	0.00104712
0.0275	0.000738672
0.0325	0.000569846
0.0375	0.000464231
0.0425	0.000387254
0.0475	0.000328407
0.0525	0.000281673
0.0575	0.000239268
0.0625	0.00020929
0.0675	0.000177109
0.0725	0.000156627
0.0775	0.000134507
0.0825	0.000113528
0.0875	9.69311e-005
0.0925	8.24939e-005
0.0975	6.85372e-005
0.1025	5.46827e-005
0.1075	4.66795e-005
0.1125	3.71469e-005
0.1175	2.9539e-005
0.1225	2.46976e-005
0.1275	2.07712e-005
0.1325	1.82508e-005
0.1375	1.7164e-005
0.1425	1.61712e-005
0.1475	1.55681e-005
0.1525	1.50536e-005
0.1575	1.43275e-005
0.1625	1.35864e-005
0.1675	1.33919e-005
0.1725	1.28428e-005
0.1775	1.26674e-005
0.1825	1.17536e-005
0.1875	1.18041e-005
0.1925	1.09836e-005
0.1975	1.05851e-005
0.2025	1.02556e-005
0.2075	9.74699e-006
0.2125	9.54527e-006
0.2175	9.48149e-006
0.2225	9.172e-006
0.2275	8.58535e-006
0.2325	8.17847e-006
0.2375	8.04245e-006
0.2425	7.94089e-006
0.2475	7.60785e-006
0.2525	7.64758e-006
0.2575	7.14083e-006
0.2625	7.29531e-006
0.2675	6.64561e-006
0.2725	6.77152e-006
0.2775	6.46143e-006
0.2825	6.29527e-006
0.2875	6.11738e-006
0.2925	5.96685e-006
0.2975	5.76806e-006
0.3025	5.87177e-006
0.3075	5.44911e-006
0.3125	5.24771e-006
0.3175	5.12505e-006
0.3225	4.84429e-006
0.3275	5.10837e-006
0.3325	4.86013e-006
0.3375	4.57345e-006
0.3425	4.61613e-006
0.3475	4.23876e-006
0.3525	4.27572e-006
0.3575	4.10458e-006
0.3625	4.11244e-006
0.3675	3.93944e-006
0.3725	3.80096e-006
0.3775	3.72189e-006
0.3825	3.48986e-006
0.3875	3.40643e-006
0.3925	3.29896e-006
0.3975	3.32625e-006
0.4025	3.15613e-006
0.4075	3.08805e-006
0.4125	2.97434e-006
0.4175	2.90594e-006
0.4225	2.68952e-006
0.4275	2.69948e-006
0.4325	2.65505e-006
0.4375	2.57101e-006
0.4425	2.42605e-006
0.4475	2.354e-006
0.4525	2.1854e-006
0.4575	2.13029e-006
0.4625	2.15702e-006
0.4675	1.95255e-006
0.4725	1.88946e-006
0.4775	2.02817e-006
0.4825	1.95655e-006
0.4875	1.79543e-006
0.4925	1.85187e-006
0.4975	1.76343e-006
0.5025	1.68412e-006
0.5075	1.59441e-006
0.5125	1.58131e-006
0.5175	1.54449e-006
0.5225	1.54598e-006
0.5275	1.45943e-006
0.5325	1.41716e-006
0.5375	1.4761e-006
0.5425	1.46833e-006
0.5475	1.45587e-006
0.5525	1.47169e-006
0.5575	1.46907e-006
0.5625	1.47809e-006
0.5675	1.45884e-006
0.5725	1.50945e-006
0.5775	1.55055e-006
0.5825	1.57104e-006
0.5875	1.57034e-006
0.5925	1.56599e-006
0.5975	1.62705e-006
0.6025	1.6255e-006
0.6075	1.65836e-006
0.6125	1.63198e-006
0.6175	1.67071e-006
0.6225	1.62676e-006
0.6275	1.62206e-006
0.6325	1.58072e-006
0.6375	1.56879e-006
0.6425	1.53429e-006
0.6475	1.52699e-006
0.6525	1.63593e-006
0.6575	1.65932e-006
0.6625	1.72369e-006
0.6675	1.76073e-006
0.6725	1.82053e-006
0.6775	1.72056e-006
0.6825	1.80769e-006
0.6875	1.86909e-006
0.6925	1.9534e-006
0.6975	2.03601e-006
0.7025	2.26204e-006
0.7075	2.36938e-006
0.7125	2.48518e-006
0.7175	2.57754e-006
0.7225	2.71411e-006
0.7275	2.66482e-006
0.7325	2.80446e-006
0.7375	2.93874e-006
0.7425	3.17262e-006
0.7475	3.43532e-006
0.7525	4.11455e-006
0.7575	5.05728e-006
0.7625	6.9844e-006
0.7675	9.47107e-006
0.7725	1.24431e-005
0.7775	1.48322e-005
0.7825	1.53136e-005
0.7875	1.39928e-005
0.7925	1.11468e-005
0.7975	8.09875e-006
0.8025	5.62493e-006
0.8075	3.7424e-006
0.8125	2.74082e-006
0.8175	2.0629e-006
0.8225	1.70451e-006
0.8275	1.43309e-006
0.8325	1.30153e-006
0.8375	1.1617e-006
0.8425	1.04953e-006
0.8475	1.00379e-006
0.8525	8.80292e-007
0.8575	8.18015e-007
0.8625	7.69212e-007
0.8675	7.16534e-007
0.8725	6.79755e-007
0.8775	6.12678e-007
0.8825	5.72435e-007
0.8875	5.58034e-007
0.8925	5.33382e-007
0.8975	5.13584e-007
0.9025	5.82132e-007
0.9075	5.66269e-007
0.9125	5.51237e-007
0.9175	5.38e-007
0.9225	5.26759e-007
0.9275	5.08472e-007
0.9325	5.02776e-007
0.9375	4.9647e-007
0.9425	4.96041e-007
0.9475	4.97853e-007
0.9525	4.39315e-007
0.9575	4.62114e-007
0.9625	4.77542e-007
0.9675	5.23657e-007
0.9725	5.95863e-007
0.9775	7.34417e-007
0.9825	1.04018e-006
0.9875	1.63669e-006
0.9925	2.72263e-006
0.9975	4.31352e-006
1.0025	6.61692e-006
1.0075	9.13489e-006
1.0125	1.12397e-005
1.0175	1.24157e-005
1.0225	1.21964e-005
1.0275	1.06226e-005
1.0325	8.19772e-006
1.0375	5.70774e-006
1.0425	3.58342e-006
1.0475	2.18388e-006
1.0525	1.2037e-006
1.0575	7.31329e-007
1.0625	4.88306e-007
1.0675	3.77133e-007
1.0725	3.10456e-007
1.0775	4.44761e-007
1.0825	4.19994e-007
1.0875	3.96639e-007
1.0925	3.93615e-007
1.0975	3.84756e-007
1.1025	2.96598e-007
1.1075	2.89644e-007
1.1125	2.88789e-007
1.1175	2.84107e-007
1.1225	2.79146e-007
1.1275	3.01154e-007
1.1325	2.96756e-007
1.1375	2.90132e-007
1.1425	2.89137e-007
1.1475	2.87202e-007
1.1525	2.14493e-007
1.1575	2.06805e-007
1.1625	2.07383e-007
1.1675	2.05437e-007
1.1725	2.0206e-007
1.1775	2.28951e-007
1.1825	2.2779e-007
1.1875	2.28407e-007
1.1925	2.23607e-007
1.1975	2.26186e-007
1.2025	2.37297e-007
1.2075	2.34133e-007
1.2125	2.3579e-007
1.2175	2.33141e-007
1.2225	2.33043e-007
1.2275	1.29278e-007
1.2325	1.32395e-007
1.2375	1.3019e-007
1.2425	1.27538e-007
1.2475	1.275e-007
1.2525	1.65573e-007
1.2575	1.67366e-007
1.2625	1.62692e-007
1.2675	1.64269e-007
1.2725	1.63528e-007
1.2775	1.5141e-007
1.2825	1.50451e-007
1.2875	1.48525e-007
1.2925	1.49987e-007
1.2975	1.48816e-007
1.3025	1.48073e-007
1.3075	1.48555e-007
1.3125	1.50193e-007
1.3175	1.46429e-007
1.3225	1.46134e-007
1.3275	1.35853e-007
1.3325	1.33875e-007
1.3375	1.34658e-007
1.3425	1.3347e-007
1.3475	1.33716e-007
1.3525	1.71434e-007
1.3575	1.70808e-007
1.3625	1.72137e-007
1.3675	1.70255e-007
1.3725	1.70877e-007
1.3775	1.45179e-007
1.3825	1.45893e-007
1.3875	1.45224e-007
1.3925	1.44233e-007
1.3975	1.44588e-007
1.4025	1.81905e-007
1.4075	1.82379e-007
1.4125	1.80893e-007
1.4175	1.82438e-007
1.4225	1.82085e-007
1.4275	1.19093e-007
1.4325	1.184e-007
1.4375	1.17853e-007
1.4425	1.18769e-007
1.4475	1.17441e-007
1.4525	1.42438e-007
1.4575	1.4384e-007
1.4625	1.42333e-007
1.4675	1.42995e-007
1.4725	1.42877e-007
1.4775	1.04736e-007
1.4825	1.03747e-007
1.4875	1.04204e-007
1.4925	1.04449e-007
1.4975	1.03283e-007
1.5025	9.26966e-008
1.5075	9.19337e-008
1.5125	9.21915e-008
1.5175	9.12385e-008
1.5225	9.05411e-008
1.5275	1.54005e-007
1.5325	1.5361e-007
1.5375	1.54817e-007
1.5425	1.53875e-007
1.5475	1.54545e-007
1.5525	1.79302e-007
1.5575	1.78399e-007
1.5625	1.78847e-007
1.5675	1.79341e-007
1.5725	1.78952e-007
1.5775	1.5323e-007
1.5825	1.536e-007
1.5875	1.53971e-007
1.5925	1.52149e-007
1.5975	1.53404e-007
1.6025	9.14454e-008
1.6075	8.97618e-008
1.6125	9.0793e-008
1.6175	8.96912e-008
1.6225	9.01264e-008
1.6275	9.03108e-008
1.6325	9.03019e-008
1.6375	8.96983e-008
1.6425	9.10151e-008
1.6475	9.00574e-008
1.6525	1.28073e-007
1.6575	1.27137e-007
1.6625	1.27624e-007
1.6675	1.28495e-007
1.6725	1.27733e-007
1.6775	1.14729e-007
1.6825	1.14991e-007
1.6875	1.14804e-007
1.6925	1.14961e-007
1.6975	1.14864e-007
1.7025	1.02482e-007
1.7075	1.02377e-007
1.7125	1.01727e-007
1.7175	1.02324e-007
1.7225	1.02115e-007
1.7275	1.15079e-007
1.7325	1.14933e-007
1.7375	1.14968e-007
1.7425	1.14836e-007
1.7475	1.14707e-007
1.7525	8.92997e-008
1.7575	9.07811e-008
1.7625	8.96831e-008
1.7675	9.06711e-008
1.7725	8.89171e-008
1.7775	3.90793e-008
1.7825	4.009e-008
1.7875	3.9086e-008
1.7925	3.93305e-008
1.7975	3.88863e-008
1.8025	1.14766e-007
1.8075	1.14758e-007
1.8125	1.14391e-007
1.8175	1.14773e-007
1.8225	1.14361e-007
1.8275	1.01123e-007
1.8325	1.01306e-007
1.8375	1.01271e-007
1.8425	1.022e-007
1.8475	1.01425e-007
1.8525	8.91039e-008
1.8575	8.85501e-008
1.8625	8.89615e-008
1.8675	8.96011e-008
1.8725	8.91039e-008
1.8775	1.266e-007
1.8825	1.26434e-007
1.8875	1.26462e-007
1.8925	1.26613e-007
1.8975	1.26288e-007
1.9025	7.59408e-008
1.9075	7.63762e-008
1.9125	7.60717e-008
1.9175	7.61757e-008
1.9225	7.59931e-008
1.9275	8.85706e-008
1.9325	8.88589e-008
1.9375	8.87008e-008
1.9425	8.89625e-008
1.9475	8.92217e-008
1.9525	1.63802e-007
1.9575	1.63739e-007
1.9625	1.64057e-007
1.9675	1.63971e-007
1.9725	1.64058e-007
1.9775	6.35387e-008
1.9825	6.36713e-008
1.9875	6.34998e-008
1.9925	6.33023e-008
1.9975	6.35806e-008
2.0025	6.33322e-008
2.0075	6.3451e-008
2.0125	6.34012e-008
2.0175	6.38069e-008
2.0225	6.33001e-008
2.0275	3.80813e-008
2.0325	3.84705e-008
2.0375	3.80728e-008
2.0425	3.83008e-008
2.0475	3.81885e-008
2.0525	7.59528e-008
2.0575	7.61657e-008
2.0625	7.63706e-008
2.0675	7.60931e-008
2.0725	7.60635e-008
2.0775	8.86711e-008
2.0825	8.84805e-008
2.0875	8.87705e-008
2.0925	8.85856e-008
2.0975	8.84075e-008
2.1025	2.54571e-008
2.1075	2.57259e-008
2.1125	2.55355e-008
2.1175	2.57937e-008
2.1225	2.59401e-008
2.1275	6.33008e-008
2.1325	6.33728e-008
2.1375	6.32257e-008
2.1425	6.3483e-008
2.1475	6.31839e-008
2.1525	1.13642e-007
2.1575	1.13694e-007
2.1625	1.13655e-007
2.1675	1.13805e-007
2.1725	1.1346e-007
2.1775	3.87379e-008
2.1825	3.82415e-008
2.1875	3.82106e-008
2.1925	3.80922e-008
2.1975	3.81618e-008
2.2025	7.61048e-008
2.2075	7.57132e-008
2.2125	7.58278e-008
2.2175	7.60007e-008
2.2225	7.58524e-008
2.2275	2.54279e-008
2.2325	2.66511e-008
2.2375	2.559e-008
2.2425	2.57058e-008
2.2475	2.54111e-008
2.2525	1.28084e-008
2.2575	1.29439e-008
2.2625	1.27179e-008
2.2675	1.29722e-008
2.2725	1.29911e-008
2.2775	8.86308e-008
2.2825	8.8408e-008
2.2875	8.85283e-008
2.2925	8.82075e-008
2.2975	8.83668e-008
2.3025	1.25987e-007
2.3075	1.26157e-007
2.3125	1.25951e-007
2.3175	1.26391e-007
2.3225	1.25859e-007
2.3275	6.33578e-008
2.3325	6.32743e-008
2.3375	6.30828e-008
2.3425	6.31572e-008
2.3475	6.32526e-008
2.3525	2.54417e-008
2.3575	2.54384e-008
2.3625	2.55717e-008
2.3675	2.65548e-008
2.3725	2.54664e-008
2.3775	1.29915e-008
2.3825	1.28894e-008
2.3875	1.2932e-008
2.3925	1.26868e-008
2.3975	1.2899e-008
2.4025	5.07418e-008
2.4075	5.04749e-008
2.4125	5.04287e-008
2.4175	5.05877e-008
2.4225	5.05809e-008
2.4275	6.31941e-008
2.4325	6.31916e-008
2.4375	6.30654e-008
2.4425	6.31388e-008
2.4475	6.32634e-008
2.4525	5.76228e-010
2.4575	1.58557e-010
2.4625	2.11093e-010
2.4675	2.04088e-010
2.4725	7.22506e-010
2.4775	8.81668e-008
2.4825	8.80759e-008
2.4875	8.81577e-008
2.4925	8.82466e-008
2.4975	8.82545e-008
2.5025	2.53184e-008
2.5075	2.51762e-008
2.5125	2.54663e-008
2.5175	2.53167e-008
2.5225	2.54167e-008
2.5275	2.53901e-008
2.5325	2.54465e-008
2.5375	2.55007e-008
2.5425	2.52508e-008
2.5475	2.53499e-008
2.5525	5.04989e-008
2.5575	5.04956e-008
2.5625	5.08368e-008
2.5675	5.0578e-008
2.5725	5.04055e-008
2.5775	5.03592e-008
2.5825	5.05477e-008
2.5875	5.12683e-008
2.5925	5.06359e-008
2.5975	5.05846e-008
2.6025	1.27888e-008
2.6075	1.30846e-008
2.6125	1.27606e-008
2.6175	1.30942e-008
2.6225	1.28415e-008
2.6275	3.83691e-008
2.6325	3.79056e-008
2.6375	3.79736e-008
2.6425	3.82555e-008
2.6475	3.78e-008
2.6525	3.78369e-008
2.6575	3.79055e-008
2.6625	3.78284e-008
2.6675	3.85735e-008
2.6725	3.79726e-008
2.6775	2.52792e-008
2.6825	2.55535e-008
2.6875	2.54002e-008
2.6925	2.53692e-008
2.6975	2.53046e-008
2.7025	1.27848e-008
2.7075	1.29627e-008
2.7125	1.27688e-008
2.7175	1.2783e-008
2.7225	1.29277e-008
2.7275	2.57314e-008
2.7325	2.54066e-008
2.7375	2.54228e-008
2.7425	2.54265e-008
2.7475	2.52356e-008
2.7525	3.77458e-008
2.7575	3.7965e-008
2.7625	3.80396e-008
2.7675	3.7822e-008
2.7725	3.77471e-008
2.7775	5.08421e-008
2.7825	5.03361e-008
2.7875	5.04876e-008
2.7925	5.0448e-008
2.7975	5.06899e-008
2.8025	1.94757e-010
2.8075	7.17901e-010
2.8125	2.20344e-010
2.8175	1.92678e-010
2.8225	3.01336e-010
2.8275	3.81894e-008
2.8325	3.78195e-008
2.8375	3.82018e-008
2.8425	3.78541e-008
2.8475	3.78418e-008
2.8525	2.91547e-010
2.8575	3.27342e-010
2.8625	5.48951e-010
2.8675	7.31999e-010
2.8725	9.14499e-010
2.8775	1.38401e-008
2.8825	1.32511e-008
2.8875	1.43907e-008
2.8925	1.46473e-008
2.8975	1.59013e-008
2.9025	1.54283e-008
2.9075	1.70443e-008
2.9125	1.81199e-008
2.9175	1.82865e-008
2.9225	2.0534e-008
2.9275	2.49643e-008
2.9325	2.88571e-008
2.9375	3.25807e-008
2.9425	3.66727e-008
2.9475	4.68649e-008
2.9525	6.92812e-008
2.9575	7.78224e-008
2.9625	9.45125e-008
2.9675	1.15322e-007
2.9725	1.42458e-007
2.9775	1.52191e-007
2.9825	1.81992e-007
2.9875	2.43214e-007
2.9925	2.84354e-007
2.9975	3.4502e-007
3.0025	4.22497e-007
3.0075	5.06636e-007
3.0125	5.92748e-007
3.0175	7.00255e-007
3.0225	7.95871e-007
3.0275	9.2136e-007
3.0325	1.0588e-006
3.0375	1.192e-006
3.0425	1.37119e-006
3.0475	1.51116e-006
3.0525	1.64629e-006
3.0575	1.80312e-006
3.0625	1.96303e-006
3.0675	2.11665e-006
3.0725	2.2488e-006
3.0775	2.43208e-006
3.0825	2.53369e-006
3.0875	2.60521e-006
3.0925	2.661e-006
3.0975	2.68753e-006
3.1025	2.5913e-006
3.1075	2.5948e-006
3.1125	2.53461e-006
3.1175	2.4469e-006
3.1225	2.34639e-006
3.1275	2.23959e-006
3.1325	2.09508e-006
3.1375	1.93836e-006
3.1425	1.77416e-006
3.1475	1.61164e-006
3.1525	1.43764e-006
3.1575	1.28308e-006
3.1625	1.10918e-006
3.1675	9.60678e-007
3.1725	8.27605e-007
3.1775	6.87392e-007
3.1825	5.73843e-007
3.1875	4.84594e-007
3.1925	3.96303e-007
3.1975	3.11004e-007
3.2025	2.59717e-007
3.2075	2.06194e-007
3.2125	1.70602e-007
3.2175	1.32132e-007
3.2225	1.09259e-007
3.2275	8.19042e-008
3.2325	6.23865e-008
3.2375	5.11966e-008
3.2425	3.89077e-008
3.2475	3.34781e-008
3.2525	4.19938e-008
3.2575	3.42709e-008
3.2625	3.17868e-008
3.2675	2.97272e-008
3.2725	2.91864e-008
3.2775	1.50859e-008
3.2825	1.4629e-008
3.2875	1.40039e-008
3.2925	1.31926e-008
3.2975	1.30453e-008
3.3025	8.26667e-010
3.3075	2.89741e-010
3.3125	2.39237e-010
3.3175	1.997e-010
3.3225	1.72837e-010
3.3275	1.2749e-008
3.3325	1.28989e-008
3.3375	1.27067e-008
3.3425	1.27693e-008
3.3475	1.29812e-008
3.3525	2.54497e-008
3.3575	2.53091e-008
3.3625	2.53837e-008
3.3675	2.52293e-008
3.3725	2.54157e-008
3.3775	9.74735e-012
3.3825	2.22646e-010
3.3875	6.00754e-011
3.3925	2.97462e-010
3.3975	8.1022e-011
3.4025	2.53821e-008
3.4075	2.53226e-008
3.4125	2.52122e-008
3.4175	2.53244e-008
3.4225	2.5337e-008
3.4275	1.27728e-008
3.4325	1.27928e-008
3.4375	1.27975e-008
3.4425	1.27814e-008
3.4475	1.27635e-008
3.4525	2.6314e-010
3.4575	1.82859e-010
3.4625	3.86247e-010
3.4675	5.11707e-010
3.4725	3.55843e-010
3.4775	3.56907e-010
3.4825	6.413e-010
3.4875	7.11152e-010
3.4925	1.02463e-009
3.4975	1.09054e-009
3.5025	1.0769e-009
3.5075	1.14777e-009
3.5125	1.5807e-009
3.5175	1.8414e-009
3.5225	2.04762e-009
3.5275	1.53061e-008
3.5325	1.54745e-008
3.5375	1.60998e-008
3.5425	1.65925e-008
3.5475	1.73047e-008
3.5525	1.8056e-008
3.5575	1.8999e-008
3.5625	2.00042e-008
3.5675	2.08347e-008
3.5725	2.21815e-008
3.5775	1.10284e-008
3.5825	1.24524e-008
3.5875	1.3967e-008
3.5925	1.55016e-008
3.5975	1.71803e-008
3.6025	1.9436e-008
3.6075	2.12832e-008
3.6125	2.31554e-008
3.6175	2.51918e-008
3.6225	2.73136e-008
3.6275	2.97712e-008
3.6325	3.25763e-008
3.6375	3.40154e-008
3.6425	3.58444e-008
3.6475	3.7915e-008
3.6525	5.26773e-008
3.6575	5.38608e-008
3.6625	5.53299e-008
3.6675	5.71629e-008
3.6725	5.78268e-008
3.6775	5.85659e-008
3.6825	5.85714e-008
3.6875	5.89871e-008
3.6925	5.93469e-008
3.6975	5.84517e-008
3.7025	5.83768e-008
3.7075	5.73472e-008
3.7125	5.64923e-008
3.7175	5.47784e-008
3.7225	5.25856e-008
3.7275	3.83419e-008
3.7325	3.61489e-008
3.7375	3.45497e-008
3.7425	3.22346e-008
3.7475	3.00207e-008
3.7525	2.78581e-008
3.7575	2.59073e-008
3.7625	2.31125e-008
3.7675	2.07913e-008
3.7725	1.90232e-008
3.7775	2.92394e-008
3.7825	2.78362e-008
3.7875	2.60166e-008
3.7925	2.39833e-008
3.7975	2.28936e-008
3.8025	8.80821e-009
3.8075	7.23053e-009
3.8125	6.5374e-009
3.8175	5.39792e-009
3.8225	4.67171e-009
3.8275	3.95119e-009
3.8325	3.15057e-009
3.8375	2.62611e-009
3.8425	2.14012e-009
3.8475	1.77905e-009
3.8525	1.52758e-009
3.8575	1.08982e-009
3.8625	9.25966e-010
3.8675	7.78223e-010
3.8725	5.94646e-010
3.8775	1.31564e-008
3.8825	1.29202e-008
3.8875	1.28332e-008
3.8925	1.27514e-008
3.8975	1.27946e-008
3.9025	2.53964e-008
3.9075	2.53772e-008
3.9125	2.52348e-008
3.9175	2.5192e-008
3.9225	2.5179e-008
3.9275	1.19876e-010
3.9325	3.41049e-011
3.9375	2.87647e-011
3.9425	1.23075e-010
3.9475	2.27561e-011
3.9525	1.25965e-008
3.9575	1.25759e-008
3.9625	1.2584e-008
3.9675	1.26442e-008
3.9725	1.27799e-008
3.9775	3.89074e-011
3.9825	6.40862e-011
3.9875	1.93227e-010
3.9925	1.74146e-012
3.9975	4.69211e-011
***
0.0025	8.22893e-005
0.0075	0.000119479
0.0125	9.04867e-005
0.0175	5.99281e-005
0.0225	3.84779e-005
0.0275	2.62011e-005
0.0325	1.94799e-005
0.0375	1.54541e-005
0.0425	1.26257e-005
0.0475	1.07118e-005
0.0525	9.18817e-006
0.0575	7.84638e-006
0.0625	6.71584e-006
0.0675	5.89639e-006
0.0725	5.0318e-006
0.0775	4.32153e-006
0.0825	3.71379e-006
0.0875	3.17048e-006
0.0925	2.69762e-006
0.0975	2.24982e-006
0.1025	1.86823e-006
0.1075	1.52725e-006
0.1125	1.23433e-006
0.1175	9.97375e-007
0.1225	8.14891e-007
0.1275	6.92282e-007
0.1325	6.22e-007
0.1375	5.70641e-007
0.1425	5.40897e-007
0.1475	5.1696e-007
0.1525	4.98061e-007
0.1575	4.81313e-007
0.1625	4.48587e-007
0.1675	4.41404e-007
0.1725	4.16522e-007
0.1775	4.04765e-007
0.1825	3.88282e-007
0.1875	3.70904e-007
0.1925	3.66665e-007
0.1975	3.56479e-007
0.2025	3.42216e-007
0.2075	3.2986e-007
0.2125	3.19858e-007
0.2175	3.04583e-007
0.2225	3.0181e-007
0.2275	2.91314e-007
0.2325	2.90954e-007
0.2375	2.79801e-007
0.2425	2.66574e-007
0.2475	2.57882e-007
0.2525	2.47649e-007
0.2575	2.48582e-007
0.2625	2.37137e-007
0.2675	2.28787e-007
0.2725	2.22341e-007
0.2775	2.14298e-007
0.2825	2.15315e-007
0.2875	2.09485e-007
0.2925	1.99135e-007
0.2975	1.93198e-007
0.3025	1.90883e-007
0.3075	1.82e-007
0.3125	1.76816e-007
0.3175	1.76052e-007
0.3225	1.66462e-007
0.3275	1.68006e-007
0.3325	1.63086e-007
0.3375	1.60309e-007
0.3425	1.5843e-007
0.3475	1.5121e-007
0.3525	1.49859e-007
0.3575	1.48243e-007
0.3625	1.42057e-007
0.3675	1.38728e-007
0.3725	1.38052e-007
0.3775	1.24263e-007
0.3825	1.19564e-007
0.3875	1.17164e-007
0.3925	1.15706e-007
0.3975	1.09249e-007
0.4025	1.09323e-007
0.4075	1.03414e-007
0.4125	1.02178e-007
0.4175	9.83406e-008
0.4225	9.68365e-008
0.4275	9.44444e-008
0.4325	9.02677e-008
0.4375	8.66788e-008
0.4425	8.16974e-008
0.4475	8.41812e-008
0.4525	7.80073e-008
0.4575	7.79571e-008
0.4625	7.20775e-008
0.4675	7.28016e-008
0.4725	6.98381e-008
0.4775	6.76102e-008
0.4825	6.57773e-008
0.4875	6.53216e-008
0.4925	6.16293e-008
0.4975	5.96429e-008
0.5025	6.2343e-008
0.5075	5.7418e-008
0.5125	5.86098e-008
0.5175	5.87215e-008
0.5225	5.77466e-008
0.5275	5.31084e-008
0.5325	4.93216e-008
0.5375	4.97444e-008
0.5425	5.15902e-008
0.5475	5.14482e-008
0.5525	5.8255e-008
0.5575	5.68069e-008
0.5625	5.81092e-008
0.5675	5.94447e-008
0.5725	6.0139e-008
0.5775	5.85153e-008
0.5825	5.92318e-008
0.5875	6.015e-008
0.5925	6.07064e-008
0.5975	6.25265e-008
0.6025	6.44113e-008
0.6075	6.40878e-008
0.6125	6.53906e-008
0.6175	6.58892e-008
0.6225	6.56691e-008
0.6275	5.9384e-008
0.6325	5.7306e-008
0.6375	5.638e-008
0.6425	5.55109e-008
0.6475	5.59001e-008
0.6525	5.46261e-008
0.6575	5.62453e-008
0.6625	5.74471e-008
0.6675	6.09022e-008
0.6725	6.3171e-008
0.6775	6.83285e-008
0.6825	7.09692e-008
0.6875	7.52428e-008
0.6925	7.90138e-008
0.6975	8.35082e-008
0.7025	9.7e-008
0.7075	1.01947e-007
0.7125	1.06589e-007
0.7175	1.11299e-007
0.7225	1.16668e-007
0.7275	1.14141e-007
0.7325	1.20354e-007
0.7375	1.3e-007
0.7425	1.41394e-007
0.7475	1.60919e-007
0.7525	1.96492e-007
0.7575	2.46864e-007
0.7625	3.26197e-007
0.7675	4.31382e-007
0.7725	5.37122e-007
0.7775	6.21826e-007
0.7825	6.48231e-007
0.7875	6.00664e-007
0.7925	5.03204e-007
0.7975	3.88702e-007
0.8025	2.72534e-007
0.8075	1.91339e-007
0.8125	1.32358e-007
0.8175	9.71975e-008
0.8225	7.63911e-008
0.8275	5.96898e-008
0.8325	5.17769e-008
0.8375	4.5472e-008
0.8425	4.11356e-008
0.8475	3.69519e-008
0.8525	3.4156e-008
0.8575	3.24191e-008
0.8625	2.96284e-008
0.8675	2.74604e-008
0.8725	2.55508e-008
0.8775	2.39042e-008
0.8825	2.20647e-008
0.8875	2.13723e-008
0.8925	2.05862e-008
0.8975	1.91444e-008
0.9025	1.60988e-008
0.9075	1.54502e-008
0.9125	1.45774e-008
0.9175	1.46569e-008
0.9225	1.35485e-008
0.9275	1.32309e-008
0.9325	1.28409e-008
0.9375	1.29966e-008
0.9425	1.2837e-008
0.9475	1.29789e-008
0.9525	1.71967e-008
0.9575	1.81294e-008
0.9625	1.98585e-008
0.9675	2.33556e-008
0.9725	2.93757e-008
0.9775	3.65663e-008
0.9825	5.74716e-008
0.9875	9.21467e-008
0.9925	1.44227e-007
0.9975	2.13636e-007
1.0025	3.03407e-007
1.0075	3.9257e-007
1.0125	4.7026e-007
1.0175	5.07564e-007
1.0225	5.01018e-007
1.0275	4.4663e-007
1.0325	3.66555e-007
1.0375	2.71806e-007
1.0425	1.85835e-007
1.0475	1.17576e-007
1.0525	7.36058e-008
1.0575	4.22155e-008
1.0625	2.57457e-008
1.0675	1.68007e-008
1.0725	1.24786e-008
1.0775	1.09564e-008
1.0825	9.57474e-009
1.0875	8.57738e-009
1.0925	7.82799e-009
1.0975	7.57988e-009
1.1025	8.32871e-009
1.1075	8.02009e-009
1.1125	7.51549e-009
1.1175	7.49878e-009
1.1225	7.18018e-009
1.1275	5.87175e-009
1.1325	5.69982e-009
1.1375	5.7328e-009
1.1425	5.5764e-009
1.1475	5.28685e-009
1.1525	3.95562e-009
1.1575	3.95552e-009
1.1625	3.8213e-009
1.1675	3.81741e-009
1.1725	3.73047e-009
1.1775	9.85571e-009
1.1825	9.92475e-009
1.1875	9.87234e-009
1.1925	9.81655e-009
1.1975	9.76304e-009
1.2025	3.42988e-009
1.2075	3.35395e-009
1.2125	3.40788e-009
1.2175	3.31913e-009
1.2225	3.24861e-009
1.2275	6.99994e-009
1.2325	7.0998e-009
1.2375	6.95498e-009
1.2425	6.92804e-009
1.2475	6.94092e-009
1.2525	1.07212e-008
1.2575	1.06678e-008
1.2625	1.06365e-008
1.2675	1.05756e-008
1.2725	1.0696e-008
1.2775	5.50264e-009
1.2825	5.52423e-009
1.2875	5.47803e-009
1.2925	5.50532e-009
1.2975	5.50192e-009
1.3025	4.2094e-009
1.3075	4.15008e-009
1.3125	4.12744e-009
1.3175	4.25541e-009
1.3225	4.09527e-009
1.3275	1.61955e-009
1.3325	1.56294e-009
1.3375	1.58935e-009
1.3425	1.53452e-009
1.3475	1.57513e-009
1.3525	3.2486e-010
1.3575	3.78331e-010
1.3625	2.9347e-010
1.3675	3.02596e-010
1.3725	2.97355e-010
1.3775	5.2893e-009
1.3825	5.28257e-009
1.3875	5.24765e-009
1.3925	5.23422e-009
1.3975	5.3281e-009
1.4025	2.81838e-009
1.4075	2.75264e-009
1.4125	2.71086e-009
1.4175	2.72867e-009
1.4225	2.75364e-009
1.4275	3.97356e-009
1.4325	3.96535e-009
1.4375	3.97036e-009
1.4425	3.951e-009
1.4475	3.98431e-009
1.4525	7.69428e-009
1.4575	7.71973e-009
1.4625	7.6864e-009
1.4675	7.69638e-009
1.4725	7.68996e-009
1.4775	2.6764e-009
1.4825	2.67717e-009
1.4875	2.67546e-009
1.4925	2.67844e-009
1.4975	2.6593e-009
1.5025	3.91855e-009
1.5075	3.90847e-009
1.5125	3.8895e-009
1.5175	3.87968e-009
1.5225	3.90261e-009
1.5275	3.92236e-009
1.5325	3.94273e-009
1.5375	3.8814e-009
1.5425	3.92396e-009
1.5475	3.85106e-009
1.5525	1.3634e-009
1.5575	1.37415e-009
1.5625	1.35871e-009
1.5675	1.39375e-009
1.5725	1.36269e-009
1.5775	1.371e-009
1.5825	1.3691e-009
1.5875	1.36634e-009
1.5925	1.32745e-009
1.5975	1.3305e-009
1.6025	1.27806e-010
1.6075	7.95779e-011
1.6125	1.2943e-010
1.6175	7.5392e-011
1.6225	6.90566e-011
1.6275	3.85094e-009
1.6325	3.84256e-009
1.6375	3.85244e-009
1.6425	3.85761e-009
1.6475	3.84125e-009
1.6525	7.21648e-011
1.6575	8.17158e-011
1.6625	7.52939e-011
1.6675	5.07683e-011
1.6725	8.9559e-011
1.6775	3.82993e-009
1.6825	3.84686e-009
1.6875	3.84089e-009
1.6925	3.84322e-009
1.6975	3.83485e-009
1.7025	5.83173e-011
1.7075	5.67995e-011
1.7125	6.87142e-011
1.7175	3.29087e-011
1.7225	4.24294e-011
1.7275	5.08721e-009
1.7325	5.09002e-009
1.7375	5.07849e-009
1.7425	5.09824e-009
1.7475	5.08181e-009
1.7525	1.30278e-009
1.7575	1.29062e-009
1.7625	1.31121e-009
1.7675	1.3024e-009
1.7725	1.29466e-009
1.7775	1.29634e-009
1.7825	1.29296e-009
1.7875	1.30368e-009
1.7925	1.30841e-009
1.7975	1.29604e-009
1.8025	5.09594e-009
1.8075	5.06606e-009
1.8125	5.05742e-009
1.8175	5.06157e-009
1.8225	5.08671e-009
1.8275	2.55055e-009
1.8325	2.54858e-009
1.8375	2.55274e-009
1.8425	2.569e-009
1.8475	2.56839e-009
1.8525	2.55641e-009
1.8575	2.55355e-009
1.8625	2.54605e-009
1.8675	2.54911e-009
1.8725	2.55155e-009
1.8775	3.37806e-011
1.8825	5.15993e-011
1.8875	2.77899e-011
1.8925	3.50958e-011
1.8975	3.13893e-011
1.9025	1.29697e-009
1.9075	1.30955e-009
1.9125	1.28004e-009
1.9175	1.2864e-009
1.9225	1.27842e-009
1.9275	2.53803e-009
1.9325	2.54209e-009
1.9375	2.5297e-009
1.9425	2.53533e-009
1.9475	2.53609e-009
1.9525	7.56109e-009
1.9575	7.55688e-009
1.9625	7.55801e-009
1.9675	7.55579e-009
1.9725	7.5704e-009
1.9775	2.5334e-009
1.9825	2.53296e-009
1.9875	2.53816e-009
1.9925	2.53661e-009
1.9975	2.53685e-009
2.0025	5.05052e-009
2.0075	5.05697e-009
2.0125	5.05651e-009
2.0175	5.04156e-009
2.0225	5.04422e-009
2.0275	3.78773e-009
2.0325	3.79372e-009
2.0375	3.79311e-009
2.0425	3.79748e-009
2.0475	3.79995e-009
2.0525	1.29829e-009
2.0575	1.27532e-009
2.0625	1.28122e-009
2.0675	1.27028e-009
2.0725	1.27468e-009
2.0775	1.27685e-009
2.0825	1.26525e-009
2.0875	1.28402e-009
2.0925	1.27802e-009
2.0975	1.27813e-009
2.1025	2.54289e-009
2.1075	2.5294e-009
2.1125	2.53421e-009
2.1175	2.53129e-009
2.1225	2.53335e-009
2.1275	1.2712e-009
2.1325	1.28095e-009
2.1375	1.2732e-009
2.1425	1.26903e-009
2.1475	1.27646e-009
2.1525	5.05657e-009
2.1575	5.04221e-009
2.1625	5.03595e-009
2.1675	5.0394e-009
2.1725	5.04103e-009
2.1775	2.52992e-009
2.1825	2.51801e-009
2.1875	2.5312e-009
2.1925	2.52471e-009
2.1975	2.52899e-009
2.2025	2.52334e-009
2.2075	2.51998e-009
2.2125	2.51424e-009
2.2175	2.53416e-009
2.2225	2.52798e-009
2.2275	1.27337e-009
2.2325	1.26874e-009
2.2375	1.27072e-009
2.2425	1.26598e-009
2.2475	1.26709e-009
2.2525	1.27315e-009
2.2575	1.27602e-009
2.2625	1.27203e-009
2.2675	1.27068e-009
2.2725	1.26608e-009
2.2775	1.67719e-011
2.2825	1.44202e-011
2.2875	8.95069e-012
2.2925	9.50744e-012
2.2975	1.22084e-011
2.3025	2.52313e-009
2.3075	2.54626e-009
2.3125	2.52486e-009
2.3175	2.52073e-009
2.3225	2.51961e-009
2.3275	2.53265e-009
2.3325	2.52247e-009
2.3375	2.52552e-009
2.3425	2.52638e-009
2.3475	2.52788e-009
2.3525	1.26257e-009
2.3575	1.26314e-009
2.3625	1.27404e-009
2.3675	1.26072e-009
2.3725	1.26554e-009
2.3775	1.26805e-009
2.3825	1.27278e-009
2.3875	1.26483e-009
2.3925	1.25877e-009
2.3975	1.25812e-009
2.4025	1.26679e-009
2.4075	1.26033e-009
2.4125	1.26555e-009
2.4175	1.26478e-009
2.4225	1.27209e-009
2.4275	2.51905e-009
2.4325	2.5248e-009
2.4375	2.52254e-009
2.4425	2.52285e-009
2.4475	2.51661e-009
2.4525	1.25936e-009
2.4575	1.26717e-009
2.4625	1.26324e-009
2.4675	1.27332e-009
2.4725	1.2647e-009
2.4775	1.27625e-009
2.4825	1.27466e-009
2.4875	1.26247e-009
2.4925	1.26558e-009
2.4975	1.26738e-009
2.5025	8.19071e-012
2.5075	6.88971e-012
2.5125	5.03652e-012
2.5175	2.68524e-012
2.5225	7.04417e-012
2.5275	1.53552e-011
2.5325	8.43753e-012
2.5375	3.22907e-012
2.5425	1.0816e-011
2.5475	4.67858e-012
2.5525	2.52402e-009
2.5575	2.52412e-009
2.5625	2.51941e-009
2.5675	2.51825e-009
2.5725	2.51838e-009
2.5775	1.26249e-009
2.5825	1.2682e-009
2.5875	1.26483e-009
2.5925	1.26302e-009
2.5975	1.26115e-009
2.6025	1.26141e-009
2.6075	1.25775e-009
2.6125	1.2654e-009
2.6175	1.26277e-009
2.6225	1.26297e-009
2.6275	2.51452e-009
2.6325	2.51827e-009
2.6375	2.5178e-009
2.6425	2.52109e-009
2.6475	2.53378e-009
2.6525	1.26851e-009
2.6575	1.26222e-009
2.6625	1.27114e-009
2.6675	1.25947e-009
2.6725	1.25678e-009
2.6775	2.51921e-009
2.6825	2.52487e-009
2.6875	2.52471e-009
2.6925	2.51731e-009
2.6975	2.51851e-009
2.7025	1.26359e-009
2.7075	1.25769e-009
2.7125	1.26694e-009
2.7175	1.27204e-009
2.7225	1.26046e-009
2.7275	3.78771e-009
2.7325	3.77606e-009
2.7375	3.7759e-009
2.7425	3.77137e-009
2.7475	3.77476e-009
2.7525	2.52296e-009
2.7575	2.52024e-009
2.7625	2.52008e-009
2.7675	2.52076e-009
2.7725	2.51987e-009
2.7775	1.26136e-009
2.7825	1.27277e-009
2.7875	1.26324e-009
2.7925	1.27003e-009
2.7975	1.26973e-009
2.8025	1.27127e-009
2.8075	1.2703e-009
2.8125	1.2639e-009
2.8175	1.27571e-009
2.8225	1.27584e-009
2.8275	2.50068e-011
2.8325	1.87208e-011
2.8375	2.36308e-011
2.8425	4.68656e-011
2.8475	2.712e-011
2.8525	6.01414e-011
2.8575	7.4905e-011
2.8625	7.53659e-011
2.8675	8.15258e-011
2.8725	9.0157e-011
2.8775	1.37396e-009
2.8825	1.42103e-009
2.8875	1.45642e-009
2.8925	1.58457e-009
2.8975	1.5929e-009
2.9025	2.9617e-009
2.9075	3.07527e-009
2.9125	3.17271e-009
2.9175	3.4364e-009
2.9225	3.54028e-009
2.9275	1.45397e-009
2.9325	1.62799e-009
2.9375	2.10773e-009
2.9425	2.56906e-009
2.9475	3.16054e-009
2.9525	4.05661e-009
2.9575	4.88613e-009
2.9625	6.36626e-009
2.9675	7.36983e-009
2.9725	9.18835e-009
2.9775	1.08531e-008
2.9825	1.28082e-008
2.9875	1.56398e-008
2.9925	1.80502e-008
2.9975	2.18809e-008
3.0025	2.65551e-008
3.0075	3.04449e-008
3.0125	3.47654e-008
3.0175	4.01371e-008
3.0225	4.62211e-008
3.0275	5.05339e-008
3.0325	5.66724e-008
3.0375	6.34213e-008
3.0425	7.02924e-008
3.0475	7.54936e-008
3.0525	8.38287e-008
3.0575	9.15186e-008
3.0625	9.80601e-008
3.0675	1.03949e-007
3.0725	1.10414e-007
3.0775	1.16377e-007
3.0825	1.21283e-007
3.0875	1.25094e-007
3.0925	1.28709e-007
3.0975	1.28829e-007
3.1025	1.29929e-007
3.1075	1.2954e-007
3.1125	1.28066e-007
3.1175	1.24428e-007
3.1225	1.20736e-007
3.1275	1.13335e-007
3.1325	1.09066e-007
3.1375	1.01945e-007
3.1425	9.41098e-008
3.1475	8.7862e-008
3.1525	8.06076e-008
3.1575	7.20393e-008
3.1625	6.56106e-008
3.1675	5.85223e-008
3.1725	5.1078e-008
3.1775	4.43876e-008
3.1825	3.87966e-008
3.1875	3.31674e-008
3.1925	2.70272e-008
3.1975	2.29385e-008
3.2025	2.08238e-008
3.2075	1.74387e-008
3.2125	1.43133e-008
3.2175	1.16384e-008
3.2225	9.20095e-009
3.2275	6.70896e-009
3.2325	5.18681e-009
3.2375	3.71323e-009
3.2425	2.62906e-009
3.2475	2.04892e-009
3.2525	2.85188e-009
3.2575	2.48472e-009
3.2625	2.18737e-009
3.2675	1.91617e-009
3.2725	1.7235e-009
3.2775	1.56673e-009
3.2825	1.48851e-009
3.2875	1.3902e-009
3.2925	1.35947e-009
3.2975	1.3422e-009
3.3025	3.76677e-011
3.3075	4.37972e-011
3.3125	4.93588e-011
3.3175	4.4356e-011
3.3225	1.92781e-011
3.3275	8.95119e-012
3.3325	9.20598e-012
3.3375	5.25247e-012
3.3425	2.17302e-011
3.3475	1.9211e-011
3.3525	5.16203e-013
3.3575	6.54949e-012
3.3625	1.06383e-012
3.3675	1.92351e-011
3.3725	9.08708e-012
3.3775	1.61248e-011
3.3825	1.21293e-011
3.3875	1.67833e-011
3.3925	1.01939e-011
3.3975	5.52021e-012
3.4025	1.26407e-009
3.4075	1.26683e-009
3.4125	1.26723e-009
3.4175	1.26812e-009
3.4225	1.26188e-009
3.4275	1.26508e-009
3.4325	1.2779e-009
3.4375	1.26994e-009
3.4425	1.26744e-009
3.4475	1.27107e-009
3.4525	3.7901e-009
3.4575	3.80132e-009
3.4625	3.80703e-009
3.4675	3.81726e-009
3.4725	3.80595e-009
3.4775	3.80625e-011
3.4825	4.66943e-011
3.4875	7.56337e-011
3.4925	6.84329e-011
3.4975	8.03846e-011
3.5025	1.35463e-009
3.5075	1.36983e-009
3.5125	1.38443e-009
3.5175	1.41367e-009
3.5225	1.43046e-009
3.5275	2.07682e-010
3.5325	2.3782e-010
3.5375	2.61625e-010
3.5425	3.07204e-010
3.5475	3.54628e-010
3.5525	3.89807e-010
3.5575	4.58768e-010
3.5625	5.25698e-010
3.5675	5.85432e-010
3.5725	6.5705e-010
3.5775	7.21951e-010
3.5825	8.00627e-010
3.5875	8.87495e-010
3.5925	9.81369e-010
3.5975	1.09679e-009
3.6025	1.17323e-009
3.6075	1.31792e-009
3.6125	1.41734e-009
3.6175	1.50704e-009
3.6225	1.60919e-009
3.6275	2.99274e-009
3.6325	3.1463e-009
3.6375	3.23302e-009
3.6425	3.30161e-009
3.6475	3.45634e-009
3.6525	2.29081e-009
3.6575	2.34228e-009
3.6625	2.43958e-009
3.6675	2.50662e-009
3.6725	2.55627e-009
3.6775	2.63224e-009
3.6825	2.60827e-009
3.6875	2.67885e-009
3.6925	2.66687e-009
3.6975	2.64127e-009
3.7025	2.61766e-009
3.7075	2.59434e-009
3.7125	2.55834e-009
3.7175	2.47632e-009
3.7225	2.40317e-009
3.7275	2.26824e-009
3.7325	2.21716e-009
3.7375	2.11485e-009
3.7425	2.04389e-009
3.7475	1.87779e-009
3.7525	1.79747e-009
3.7575	1.64486e-009
3.7625	1.54854e-009
3.7675	1.38645e-009
3.7725	1.29986e-009
3.7775	1.18555e-009
3.7825	1.06454e-009
3.7875	9.84014e-010
3.7925	8.63952e-010
3.7975	7.70645e-010
3.8025	6.71911e-010
3.8075	5.77223e-010
3.8125	5.145e-010
3.8175	4.44378e-010
3.8225	3.89557e-010
3.8275	1.58045e-009
3.8325	1.52456e-009
3.8375	1.49176e-009
3.8425	1.45741e-009
3.8475	1.42503e-009
3.8525	1.43363e-010
3.8575	1.25674e-010
3.8625	9.52376e-011
3.8675	8.30813e-011
3.8725	6.70448e-011
3.8775	5.51457e-011
3.8825	4.53242e-011
3.8875	3.56859e-011
3.8925	2.8674e-011
3.8975	2.04275e-011
3.9025	2.11436e-011
3.9075	1.14606e-011
3.9125	1.3345e-011
3.9175	7.27331e-012
3.9225	7.12353e-012
3.9275	1.26389e-009
3.9325	1.26409e-009
3.9375	1.26001e-009
3.9425	1.25941e-009
3.9475	1.25946e-009
3.9525	1.262e-009
3.9575	1.25708e-009
3.9625	1.2569e-009
3.9675	1.2582e-009
3.9725	1.25757e-009
3.9775	1.51943e-012
3.9825	6.37488e-013
3.9875	7.70991e-013
3.9925	1.28922e-012
3.9975	6.33943e-012
***
0.0025	3.37278e-006
0.0075	5.31625e-006
0.0125	4.38901e-006
0.0175	3.18611e-006
0.0225	2.19221e-006
0.0275	1.50637e-006
0.0325	1.08322e-006
0.0375	8.23845e-007
0.0425	6.60133e-007
0.0475	5.44667e-007
0.0525	4.64694e-007
0.0575	3.95598e-007
0.0625	3.40847e-007
0.0675	2.92103e-007
0.0725	2.52182e-007
0.0775	2.16622e-007
0.0825	1.84744e-007
0.0875	1.59251e-007
0.0925	1.34031e-007
0.0975	1.12857e-007
0.1025	9.25766e-008
0.1075	7.75913e-008
0.1125	6.32717e-008
0.1175	5.1997e-008
0.1225	4.25541e-008
0.1275	3.60712e-008
0.1325	3.24095e-008
0.1375	3.00029e-008
0.1425	2.77556e-008
0.1475	2.64688e-008
0.1525	2.54364e-008
0.1575	2.44382e-008
0.1625	2.34232e-008
0.1675	2.24915e-008
0.1725	2.20262e-008
0.1775	2.08279e-008
0.1825	1.99305e-008
0.1875	1.97805e-008
0.1925	1.88525e-008
0.1975	1.83464e-008
0.2025	1.76131e-008
0.2075	1.73366e-008
0.2125	1.66443e-008
0.2175	1.61202e-008
0.2225	1.53522e-008
0.2275	1.51031e-008
0.2325	1.45167e-008
0.2375	1.41269e-008
0.2425	1.3912e-008
0.2475	1.31256e-008
0.2525	1.28416e-008
0.2575	1.24708e-008
0.2625	1.2226e-008
0.2675	1.18589e-008
0.2725	1.13258e-008
0.2775	1.12495e-008
0.2825	1.11288e-008
0.2875	1.06837e-008
0.2925	1.05634e-008
0.2975	1.04609e-008
0.3025	9.77811e-009
0.3075	9.84758e-009
0.3125	9.52903e-009
0.3175	9.02316e-009
0.3225	8.89572e-009
0.3275	8.70036e-009
0.3325	8.4392e-009
0.3375	8.22857e-009
0.3425	7.9104e-009
0.3475	7.65763e-009
0.3525	7.40156e-009
0.3575	7.12695e-009
0.3625	7.12031e-009
0.3675	6.8876e-009
0.3725	6.74182e-009
0.3775	6.48439e-009
0.3825	6.27664e-009
0.3875	5.92855e-009
0.3925	5.79535e-009
0.3975	5.75093e-009
0.4025	5.69144e-009
0.4075	5.40151e-009
0.4125	5.35814e-009
0.4175	5.02614e-009
0.4225	4.92455e-009
0.4275	4.85224e-009
0.4325	4.76738e-009
0.4375	4.54181e-009
0.4425	4.43242e-009
0.4475	4.17316e-009
0.4525	4.1699e-009
0.4575	3.90678e-009
0.4625	3.86196e-009
0.4675	3.69773e-009
0.4725	3.58322e-009
0.4775	3.57568e-009
0.4825	3.38092e-009
0.4875	3.27405e-009
0.4925	3.22165e-009
0.4975	3.04666e-009
0.5025	2.9858e-009
0.5075	2.94864e-009
0.5125	2.85863e-009
0.5175	2.83558e-009
0.5225	2.73502e-009
0.5275	2.94724e-009
0.5325	2.83535e-009
0.5375	2.7631e-009
0.5425	2.78277e-009
0.5475	2.89933e-009
0.5525	2.81727e-009
0.5575	2.83555e-009
0.5625	2.8328e-009
0.5675	2.8693e-009
0.5725	3.00215e-009
0.5775	3.05081e-009
0.5825	3.10913e-009
0.5875	3.03252e-009
0.5925	3.04019e-009
0.5975	3.17145e-009
0.6025	3.30991e-009
0.6075	3.2722e-009
0.6125	3.36488e-009
0.6175	3.32489e-009
0.6225	3.39321e-009
0.6275	3.27777e-009
0.6325	3.29058e-009
0.6375	3.30699e-009
0.6425	3.30083e-009
0.6475	3.32889e-009
0.6525	3.32915e-009
0.6575	3.43722e-009
0.6625	3.54996e-009
0.6675	3.71026e-009
0.6725	3.86338e-009
0.6775	4.08051e-009
0.6825	4.27874e-009
0.6875	4.53491e-009
0.6925	4.81215e-009
0.6975	5.11646e-009
0.7025	5.44932e-009
0.7075	5.70206e-009
0.7125	6.02069e-009
0.7175	6.35535e-009
0.7225	6.73546e-009
0.7275	7.14263e-009
0.7325	7.71774e-009
0.7375	8.47939e-009
0.7425	9.5342e-009
0.7475	1.11021e-008
0.7525	1.36469e-008
0.7575	1.71701e-008
0.7625	2.17818e-008
0.7675	2.72018e-008
0.7725	3.24667e-008
0.7775	3.67406e-008
0.7825	3.83459e-008
0.7875	3.62379e-008
0.7925	3.18655e-008
0.7975	2.57425e-008
0.8025	1.94901e-008
0.8075	1.40927e-008
0.8125	1.00846e-008
0.8175	7.25516e-009
0.8225	5.45557e-009
0.8275	4.21873e-009
0.8325	3.48327e-009
0.8375	2.99839e-009
0.8425	2.59317e-009
0.8475	2.30762e-009
0.8525	2.16001e-009
0.8575	2.00546e-009
0.8625	1.84315e-009
0.8675	1.68896e-009
0.8725	1.56822e-009
0.8775	1.44961e-009
0.8825	1.35742e-009
0.8875	1.26449e-009
0.8925	1.20939e-009
0.8975	1.14125e-009
0.9025	1.13212e-009
0.9075	1.08391e-009
0.9125	1.03589e-009
0.9175	9.99111e-010
0.9225	9.85151e-010
0.9275	9.5395e-010
0.9325	9.43379e-010
0.9375	9.45303e-010
0.9425	9.67555e-010
0.9475	9.87779e-010
0.9525	1.08375e-009
0.9575	1.24852e-009
0.9625	1.49268e-009
0.9675	1.9493e-009
0.9725	2.70231e-009
0.9775	3.90861e-009
0.9825	5.80347e-009
0.9875	8.61838e-009
0.9925	1.2336e-008
0.9975	1.71015e-008
1.0025	2.2125e-008
1.0075	2.72756e-008
1.0125	3.14174e-008
1.0175	3.3689e-008
1.0225	3.35498e-008
1.0275	3.11136e-008
1.0325	2.68549e-008
1.0375	2.14925e-008
1.0425	1.61145e-008
1.0475	1.14322e-008
1.0525	7.52964e-009
1.0575	4.82862e-009
1.0625	2.98526e-009
1.0675	1.8819e-009
1.0725	1.23092e-009
1.0775	8.47203e-010
1.0825	6.18618e-010
1.0875	4.92752e-010
1.0925	4.05102e-010
1.0975	3.59866e-010
1.1025	4.5638e-010
1.1075	4.16154e-010
1.1125	3.89248e-010
1.1175	3.72234e-010
1.1225	3.57473e-010
1.1275	3.43825e-010
1.1325	3.35005e-010
1.1375	3.25395e-010
1.1425	3.19184e-010
1.1475	3.03667e-010
1.1525	2.38412e-010
1.1575	2.27628e-010
1.1625	2.22794e-010
1.1675	2.19588e-010
1.1725	2.14206e-010
1.1775	2.12609e-010
1.1825	2.05678e-010
1.1875	2.01676e-010
1.1925	1.9666e-010
1.1975	1.97671e-010
1.2025	7.00586e-011
1.2075	6.02512e-011
1.2125	6.02908e-011
1.2175	5.53197e-011
1.2225	5.04394e-011
1.2275	5.35004e-011
1.2325	5.00559e-011
1.2375	4.9834e-011
1.2425	4.44938e-011
1.2475	4.94287e-011
1.2525	2.91552e-010
1.2575	2.93275e-010
1.2625	2.90511e-010
1.2675	2.89186e-010
1.2725	2.94764e-010
1.2775	2.87929e-010
1.2825	2.8532e-010
1.2875	2.83354e-010
1.2925	2.8499e-010
1.2975	2.81245e-010
1.3025	2.82577e-010
1.3075	2.78124e-010
1.3125	2.79211e-010
1.3175	2.76849e-010
1.3225	2.78617e-010
1.3275	2.7668e-010
1.3325	2.75769e-010
1.3375	2.74345e-010
1.3425	2.72366e-010
1.3475	2.72482e-010
1.3525	2.10269e-010
1.3575	2.09529e-010
1.3625	2.13705e-010
1.3675	2.06463e-010
1.3725	2.07011e-010
1.3775	2.0627e-010
1.3825	2.06901e-010
1.3875	2.06331e-010
1.3925	2.04978e-010
1.3975	2.06368e-010
1.4025	1.61018e-011
1.4075	1.60782e-011
1.4125	1.55431e-011
1.4175	1.29054e-011
1.4225	1.28177e-011
1.4275	1.39084e-011
1.4325	1.38368e-011
1.4375	1.34125e-011
1.4425	1.21636e-011
1.4475	1.41773e-011
1.4525	3.26572e-010
1.4575	3.25598e-010
1.4625	3.25927e-010
1.4675	3.26331e-010
1.4725	3.25308e-010
1.4775	3.26694e-010
1.4825	3.24242e-010
1.4875	3.23845e-010
1.4925	3.22743e-010
1.4975	3.24299e-010
1.5025	1.34661e-010
1.5075	1.35158e-010
1.5125	1.33859e-010
1.5175	1.35037e-010
1.5225	1.33823e-010
1.5275	1.349e-010
1.5325	1.34793e-010
1.5375	1.33761e-010
1.5425	1.34637e-010
1.5475	1.33454e-010
1.5525	8.23512e-012
1.5575	7.70884e-012
1.5625	5.92323e-012
1.5675	7.10936e-012
1.5725	6.4521e-012
1.5775	5.83187e-012
1.5825	8.02742e-012
1.5875	6.45337e-012
1.5925	5.6118e-012
1.5975	5.39054e-012
1.6025	1.93569e-010
1.6075	1.95488e-010
1.6125	1.94986e-010
1.6175	1.948e-010
1.6225	1.9531e-010
1.6275	1.93773e-010
1.6325	1.93524e-010
1.6375	1.93696e-010
1.6425	1.94416e-010
1.6475	1.93141e-010
1.6525	1.30986e-010
1.6575	1.3141e-010
1.6625	1.30173e-010
1.6675	1.29591e-010
1.6725	1.29057e-010
1.6775	1.30042e-010
1.6825	1.30105e-010
1.6875	1.29451e-010
1.6925	1.296e-010
1.6975	1.29633e-010
1.7025	3.33437e-012
1.7075	3.58378e-012
1.7125	4.20225e-012
1.7175	4.24573e-012
1.7225	3.74508e-012
1.7275	3.48492e-012
1.7325	3.42457e-012
1.7375	3.19679e-012
1.7425	4.67242e-012
1.7475	4.14924e-012
1.7525	6.59901e-011
1.7575	6.60207e-011
1.7625	6.70822e-011
1.7675	6.65364e-011
1.7725	6.54479e-011
1.7775	6.61073e-011
1.7825	6.62709e-011
1.7875	6.54053e-011
1.7925	6.54096e-011
1.7975	6.62673e-011
1.8025	1.29088e-010
1.8075	1.28286e-010
1.8125	1.28405e-010
1.8175	1.28381e-010
1.8225	1.28467e-010
1.8275	1.28336e-010
1.8325	1.2836e-010
1.8375	1.28472e-010
1.8425	1.28392e-010
1.8475	1.28558e-010
1.8525	1.91259e-010
1.8575	1.90839e-010
1.8625	1.90475e-010
1.8675	1.90609e-010
1.8725	1.91862e-010
1.8775	1.90534e-010
1.8825	1.90648e-010
1.8875	1.90538e-010
1.8925	1.90548e-010
1.8975	1.89649e-010
1.9025	1.90745e-010
1.9075	1.90761e-010
1.9125	1.90055e-010
1.9175	1.90395e-010
1.9225	1.90386e-010
1.9275	1.90914e-010
1.9325	1.89919e-010
1.9375	1.89768e-010
1.9425	1.89757e-010
1.9475	1.90866e-010
1.9525	1.27974e-010
1.9575	1.27512e-010
1.9625	1.26799e-010
1.9675	1.26917e-010
1.9725	1.2742e-010
1.9775	1.27184e-010
1.9825	1.27354e-010
1.9875	1.26896e-010
1.9925	1.27009e-010
1.9975	1.26982e-010
2.0025	1.2717e-010
2.0075	1.26725e-010
2.0125	1.27035e-010
2.0175	1.26874e-010
2.0225	1.26648e-010
2.0275	1.27086e-010
2.0325	1.26708e-010
2.0375	1.27515e-010
2.0425	1.26938e-010
2.0475	1.26864e-010
2.0525	6.41415e-011
2.0575	6.39166e-011
2.0625	6.43779e-011
2.0675	6.38466e-011
2.0725	6.37287e-011
2.0775	6.35545e-011
2.0825	6.37195e-011
2.0875	6.46949e-011
2.0925	6.42634e-011
2.0975	6.37022e-011
2.1025	1.26693e-010
2.1075	1.26516e-010
2.1125	1.26922e-010
2.1175	1.26781e-010
2.1225	1.27183e-010
2.1275	1.26607e-010
2.1325	1.26619e-010
2.1375	1.26658e-010
2.1425	1.26689e-010
2.1475	1.26425e-010
2.1525	1.89502e-010
2.1575	1.89236e-010
2.1625	1.89206e-010
2.1675	1.89439e-010
2.1725	1.89637e-010
2.1775	1.89611e-010
2.1825	1.89258e-010
2.1875	1.89328e-010
2.1925	1.89115e-010
2.1975	1.89475e-010
2.2025	2.52327e-010
2.2075	2.52152e-010
2.2125	2.53272e-010
2.2175	2.5296e-010
2.2225	2.51901e-010
2.2275	2.5175e-010
2.2325	2.51976e-010
2.2375	2.51855e-010
2.2425	2.52021e-010
2.2475	2.51971e-010
2.2525	8.55295e-013
2.2575	6.03294e-013
2.2625	1.36953e-012
2.2675	8.98038e-013
2.2725	3.35091e-013
2.2775	4.78331e-013
2.2825	8.8067e-013
2.2875	1.02327e-012
2.2925	4.36497e-013
2.2975	5.41257e-013
2.3025	5.55323e-013
2.3075	4.73187e-013
2.3125	6.51501e-013
2.3175	8.15771e-013
2.3225	6.57514e-013
2.3275	6.51072e-013
2.3325	1.90654e-013
2.3375	4.93133e-013
2.3425	3.32631e-013
2.3475	5.39602e-013
2.3525	8.92359e-013
2.3575	5.22103e-013
2.3625	9.19739e-013
2.3675	2.85861e-013
2.3725	4.36901e-013
2.3775	4.6161e-013
2.3825	6.22528e-013
2.3875	6.9459e-013
2.3925	5.12265e-013
2.3975	4.4452e-013
2.4025	1.25964e-010
2.4075	1.26232e-010
2.4125	1.26304e-010
2.4175	1.2593e-010
2.4225	1.26005e-010
2.4275	1.26354e-010
2.4325	1.26146e-010
2.4375	1.2621e-010
2.4425	1.2603e-010
2.4475	1.26118e-010
2.4525	3.44464e-013
2.4575	5.28866e-013
2.4625	2.81863e-013
2.4675	3.13225e-013
2.4725	5.29343e-013
2.4775	2.45787e-013
2.4825	4.28235e-013
2.4875	5.38832e-013
2.4925	4.63529e-013
2.4975	5.32303e-013
2.5025	6.30314e-011
2.5075	6.31646e-011
2.5125	6.34824e-011
2.5175	6.33088e-011
2.5225	6.3235e-011
2.5275	6.32349e-011
2.5325	6.32733e-011
2.5375	6.31111e-011
2.5425	6.38048e-011
2.5475	6.33166e-011
2.5525	3.83301e-013
2.5575	4.05246e-013
2.5625	1.97475e-013
2.5675	4.18218e-013
2.5725	1.74443e-013
2.5775	2.88231e-013
2.5825	5.30868e-013
2.5875	2.66405e-013
2.5925	5.48941e-013
2.5975	2.27588e-013
2.6025	1.26022e-010
2.6075	1.2592e-010
2.6125	1.26187e-010
2.6175	1.25927e-010
2.6225	1.25873e-010
2.6275	1.26066e-010
2.6325	1.26338e-010
2.6375	1.25929e-010
2.6425	1.26275e-010
2.6475	1.25875e-010
2.6525	6.31314e-011
2.6575	6.35318e-011
2.6625	6.419e-011
2.6675	6.30381e-011
2.6725	6.29637e-011
2.6775	6.34853e-011
2.6825	6.31853e-011
2.6875	6.32819e-011
2.6925	6.33338e-011
2.6975	6.32327e-011
2.7025	6.34952e-011
2.7075	6.32474e-011
2.7125	6.34103e-011
2.7175	6.29943e-011
2.7225	6.33635e-011
2.7275	6.32999e-011
2.7325	6.32415e-011
2.7375	6.34927e-011
2.7425	6.34498e-011
2.7475	6.34818e-011
2.7525	6.36053e-011
2.7575	6.33494e-011
2.7625	6.32059e-011
2.7675	6.35715e-011
2.7725	6.44476e-011
2.7775	6.33511e-011
2.7825	6.41266e-011
2.7875	6.45844e-011
2.7925	6.47851e-011
2.7975	6.44342e-011
2.8025	1.90388e-010
2.8075	1.90647e-010
2.8125	1.90328e-010
2.8175	1.91861e-010
2.8225	1.91377e-010
2.8275	1.93106e-010
2.8325	1.93586e-010
2.8375	1.94635e-010
2.8425	1.96097e-010
2.8475	1.99585e-010
2.8525	1.29712e-011
2.8575	1.6336e-011
2.8625	1.70634e-011
2.8675	2.41583e-011
2.8725	2.86221e-011
2.8775	3.73877e-011
2.8825	4.23241e-011
2.8875	4.86237e-011
2.8925	6.20314e-011
2.8975	7.40425e-011
2.9025	9.50742e-011
2.9075	1.06347e-010
2.9125	1.31944e-010
2.9175	1.6556e-010
2.9225	2.07741e-010
2.9275	2.39375e-010
2.9325	2.82153e-010
2.9375	3.40297e-010
2.9425	4.18435e-010
2.9475	4.91957e-010
2.9525	6.36279e-010
2.9575	7.60976e-010
2.9625	8.52036e-010
2.9675	9.8393e-010
2.9725	1.16094e-009
2.9775	1.31431e-009
2.9825	1.50921e-009
2.9875	1.72299e-009
2.9925	2.02969e-009
2.9975	2.26894e-009
3.0025	2.55518e-009
3.0075	2.85053e-009
3.0125	3.22666e-009
3.0175	3.54899e-009
3.0225	3.93921e-009
3.0275	4.46244e-009
3.0325	4.83296e-009
3.0375	5.34136e-009
3.0425	5.80223e-009
3.0475	6.28141e-009
3.0525	6.95856e-009
3.0575	7.45448e-009
3.0625	7.87e-009
3.0675	8.2426e-009
3.0725	8.60134e-009
3.0775	9.03034e-009
3.0825	9.18883e-009
3.0875	9.52345e-009
3.0925	9.7601e-009
3.0975	9.97347e-009
3.1025	9.68556e-009
3.1075	9.81771e-009
3.1125	9.70543e-009
3.1175	9.57378e-009
3.1225	9.40954e-009
3.1275	9.04928e-009
3.1325	8.77864e-009
3.1375	8.42961e-009
3.1425	7.87601e-009
3.1475	7.43501e-009
3.1525	7.11757e-009
3.1575	6.63871e-009
3.1625	6.0945e-009
3.1675	5.59605e-009
3.1725	5.09367e-009
3.1775	4.62689e-009
3.1825	4.11254e-009
3.1875	3.62048e-009
3.1925	3.22791e-009
3.1975	2.79159e-009
3.2025	2.42023e-009
3.2075	2.05828e-009
3.2125	1.80129e-009
3.2175	1.49179e-009
3.2225	1.30252e-009
3.2275	1.04311e-009
3.2325	9.10084e-010
3.2375	7.27637e-010
3.2425	6.08789e-010
3.2475	5.00157e-010
3.2525	4.14743e-010
3.2575	3.20011e-010
3.2625	2.797e-010
3.2675	2.35592e-010
3.2725	1.8878e-010
3.2775	1.62272e-010
3.2825	1.45968e-010
3.2875	1.22187e-010
3.2925	9.93406e-011
3.2975	9.43491e-011
3.3025	3.00366e-011
3.3075	2.01105e-011
3.3125	1.60368e-011
3.3175	6.77097e-012
3.3225	8.68732e-012
3.3275	6.46439e-012
3.3325	2.7227e-012
3.3375	3.27566e-012
3.3425	1.46531e-012
3.3475	2.02819e-012
3.3525	2.60618e-012
3.3575	1.84089e-012
3.3625	2.78833e-013
3.3675	2.55089e-012
3.3725	7.43312e-013
3.3775	7.27251e-013
3.3825	1.244e-012
3.3875	1.31886e-012
3.3925	5.61922e-013
3.3975	1.59301e-012
3.4025	6.43756e-011
3.4075	6.41109e-011
3.4125	6.40424e-011
3.4175	6.46019e-011
3.4225	6.42897e-011
3.4275	6.4532e-011
3.4325	6.55576e-011
3.4375	6.56186e-011
3.4425	6.60377e-011
3.4475	6.60748e-011
3.4525	6.67564e-011
3.4575	6.68588e-011
3.4625	6.7481e-011
3.4675	6.79387e-011
3.4725	6.96645e-011
3.4775	6.94474e-011
3.4825	7.09051e-011
3.4875	7.24775e-011
3.4925	7.28785e-011
3.4975	7.51131e-011
3.5025	1.38535e-011
3.5075	1.59627e-011
3.5125	1.85798e-011
3.5175	1.96053e-011
3.5225	2.25884e-011
3.5275	2.58925e-011
3.5325	2.7837e-011
3.5375	3.08758e-011
3.5425	3.57028e-011
3.5475	4.01666e-011
3.5525	4.4757e-011
3.5575	4.88903e-011
3.5625	5.51232e-011
3.5675	6.05353e-011
3.5725	6.49325e-011
3.5775	7.17899e-011
3.5825	7.83998e-011
3.5875	8.59738e-011
3.5925	9.43625e-011
3.5975	1.01492e-010
3.6025	1.09796e-010
3.6075	1.1657e-010
3.6125	1.2609e-010
3.6175	1.35041e-010
3.6225	1.42086e-010
3.6275	1.51194e-010
3.6325	1.58629e-010
3.6375	1.67541e-010
3.6425	1.76765e-010
3.6475	1.82696e-010
3.6525	2.53273e-010
3.6575	2.59482e-010
3.6625	2.63075e-010
3.6675	2.70725e-010
3.6725	2.75804e-010
3.6775	2.79162e-010
3.6825	2.80496e-010
3.6875	2.86036e-010
3.6925	2.85553e-010
3.6975	2.83374e-010
3.7025	2.83975e-010
3.7075	2.82008e-010
3.7125	2.80764e-010
3.7175	2.77533e-010
3.7225	2.70947e-010
3.7275	2.68355e-010
3.7325	2.59277e-010
3.7375	2.53083e-010
3.7425	2.45747e-010
3.7475	2.38656e-010
3.7525	1.66275e-010
3.7575	1.59184e-010
3.7625	1.4901e-010
3.7675	1.39305e-010
3.7725	1.30015e-010
3.7775	1.21067e-010
3.7825	1.11686e-010
3.7875	1.04227e-010
3.7925	9.35338e-011
3.7975	8.63679e-011
3.8025	7.78665e-011
3.8075	7.0373e-011
3.8125	6.28732e-011
3.8175	5.57352e-011
3.8225	4.99284e-011
3.8275	4.49307e-011
3.8325	3.90405e-011
3.8375	3.42879e-011
3.8425	2.99176e-011
3.8475	2.66837e-011
3.8525	8.50476e-011
3.8575	8.2399e-011
3.8625	7.96525e-011
3.8675	7.67538e-011
3.8725	7.48135e-011
3.8775	7.2921e-011
3.8825	7.11786e-011
3.8875	6.97783e-011
3.8925	6.88082e-011
3.8975	6.74071e-011
3.9025	3.80483e-012
3.9075	3.44658e-012
3.9125	2.34991e-012
3.9175	2.08462e-012
3.9225	1.92705e-012
3.9275	1.40507e-012
3.9325	1.13103e-012
3.9375	8.0367e-013
3.9425	6.89455e-013
3.9475	7.68236e-013
3.9525	3.88615e-013
3.9575	3.19364e-013
3.9625	4.51459e-013
3.9675	1.82219e-013
3.9725	1.50312e-013
3.9775	1.6475e-013
3.9825	1.76757e-013
3.9875	1.26541e-013
3.9925	1.97472e-013
3.9975	1.56904e-013
***
0.0025	4.65072e-008
0.0075	8.15801e-008
0.0125	7.35046e-008
0.0175	5.95546e-008
0.0225	4.5098e-008
0.0275	3.29363e-008
0.0325	2.39399e-008
0.0375	1.77765e-008
0.0425	1.37269e-008
0.0475	1.08663e-008
0.0525	9.00233e-009
0.0575	7.5234e-009
0.0625	6.41125e-009
0.0675	5.44089e-009
0.0725	4.69595e-009
0.0775	4.00784e-009
0.0825	3.44356e-009
0.0875	2.94136e-009
0.0925	2.4785e-009
0.0975	2.09056e-009
0.1025	1.73245e-009
0.1075	1.44542e-009
0.1125	1.2045e-009
0.1175	9.77093e-010
0.1225	8.40378e-010
0.1275	7.02933e-010
0.1325	6.3496e-010
0.1375	5.69348e-010
0.1425	5.33476e-010
0.1475	5.01046e-010
0.1525	4.76885e-010
0.1575	4.59313e-010
0.1625	4.3576e-010
0.1675	4.20453e-010
0.1725	4.00774e-010
0.1775	3.99344e-010
0.1825	3.78728e-010
0.1875	3.63448e-010
0.1925	3.56277e-010
0.1975	3.49212e-010
0.2025	3.29996e-010
0.2075	3.25094e-010
0.2125	3.08925e-010
0.2175	3.03382e-010
0.2225	2.92744e-010
0.2275	2.8381e-010
0.2325	2.75601e-010
0.2375	2.69184e-010
0.2425	2.6064e-010
0.2475	2.49701e-010
0.2525	2.44167e-010
0.2575	2.38203e-010
0.2625	2.32691e-010
0.2675	2.2519e-010
0.2725	2.14595e-010
0.2775	2.17848e-010
0.2825	2.1118e-010
0.2875	2.11246e-010
0.2925	2.00781e-010
0.2975	2.01053e-010
0.3025	1.9233e-010
0.3075	1.85485e-010
0.3125	1.83255e-010
0.3175	1.75931e-010
0.3225	1.76996e-010
0.3275	1.68951e-010
0.3325	1.60659e-010
0.3375	1.5933e-010
0.3425	1.52916e-010
0.3475	1.50569e-010
0.3525	1.50962e-010
0.3575	1.40505e-010
0.3625	1.37881e-010
0.3675	1.34851e-010
0.3725	1.28725e-010
0.3775	1.26338e-010
0.3825	1.21736e-010
0.3875	1.19235e-010
0.3925	1.14519e-010
0.3975	1.17329e-010
0.4025	1.1216e-010
0.4075	1.0742e-010
0.4125	1.0289e-010
0.4175	1.02392e-010
0.4225	9.44687e-011
0.4275	9.36303e-011
0.4325	8.94662e-011
0.4375	9.03731e-011
0.4425	8.4113e-011
0.4475	8.47969e-011
0.4525	8.01812e-011
0.4575	7.65033e-011
0.4625	7.47602e-011
0.4675	7.24926e-011
0.4725	7.2723e-011
0.4775	7.30579e-011
0.4825	6.74157e-011
0.4875	6.25258e-011
0.4925	5.97716e-011
0.4975	6.18663e-011
0.5025	5.82327e-011
0.5075	5.97372e-011
0.5125	5.80677e-011
0.5175	5.7577e-011
0.5225	5.68211e-011
0.5275	5.64918e-011
0.5325	5.53765e-011
0.5375	5.62265e-011
0.5425	5.93647e-011
0.5475	5.85252e-011
0.5525	5.97181e-011
0.5575	6.07835e-011
0.5625	6.07867e-011
0.5675	6.40533e-011
0.5725	6.33471e-011
0.5775	6.36318e-011
0.5825	6.48215e-011
0.5875	6.53778e-011
0.5925	6.82593e-011
0.5975	6.73872e-011
0.6025	6.94002e-011
0.6075	7.06516e-011
0.6125	7.11712e-011
0.6175	7.10117e-011
0.6225	7.21097e-011
0.6275	7.06135e-011
0.6325	7.08135e-011
0.6375	6.9802e-011
0.6425	7.18336e-011
0.6475	7.25293e-011
0.6525	7.32518e-011
0.6575	7.57903e-011
0.6625	7.83783e-011
0.6675	8.17022e-011
0.6725	8.58606e-011
0.6775	9.01166e-011
0.6825	9.65215e-011
0.6875	1.01021e-010
0.6925	1.0663e-010
0.6975	1.13428e-010
0.7025	1.24994e-010
0.7075	1.32867e-010
0.7125	1.41875e-010
0.7175	1.49147e-010
0.7225	1.60613e-010
0.7275	1.73693e-010
0.7325	1.91433e-010
0.7375	2.15138e-010
0.7425	2.45726e-010
0.7475	2.90219e-010
0.7525	3.46935e-010
0.7575	4.22904e-010
0.7625	5.03193e-010
0.7675	5.9584e-010
0.7725	6.82205e-010
0.7775	7.38496e-010
0.7825	7.64194e-010
0.7875	7.45063e-010
0.7925	6.85382e-010
0.7975	5.93503e-010
0.8025	4.83191e-010
0.8075	3.83113e-010
0.8125	2.91956e-010
0.8175	2.21175e-010
0.8225	1.66832e-010
0.8275	1.2772e-010
0.8325	1.00608e-010
0.8375	8.22744e-011
0.8425	6.98273e-011
0.8475	6.01182e-011
0.8525	5.87442e-011
0.8575	5.35015e-011
0.8625	4.8901e-011
0.8675	4.52248e-011
0.8725	4.21911e-011
0.8775	3.94168e-011
0.8825	3.69456e-011
0.8875	3.51293e-011
0.8925	3.28743e-011
0.8975	3.1287e-011
0.9025	2.3913e-011
0.9075	2.26573e-011
0.9125	2.19676e-011
0.9175	2.1179e-011
0.9225	2.09328e-011
0.9275	2.04564e-011
0.9325	2.09177e-011
0.9375	2.18698e-011
0.9425	2.4026e-011
0.9475	2.7193e-011
0.9525	3.26637e-011
0.9575	4.19459e-011
0.9625	5.63316e-011
0.9675	7.68284e-011
0.9725	1.07212e-010
0.9775	1.48093e-010
0.9825	2.04499e-010
0.9875	2.73714e-010
0.9925	3.57142e-010
0.9975	4.53206e-010
1.0025	5.50115e-010
1.0075	6.4084e-010
1.0125	7.12433e-010
1.0175	7.52181e-010
1.0225	7.62504e-010
1.0275	7.30279e-010
1.0325	6.65296e-010
1.0375	5.77748e-010
1.0425	4.76913e-010
1.0475	3.74737e-010
1.0525	2.81099e-010
1.0575	2.04004e-010
1.0625	1.42589e-010
1.0675	9.57557e-011
1.0725	6.42731e-011
1.0775	4.2126e-011
1.0825	2.81145e-011
1.0875	1.97746e-011
1.0925	1.42644e-011
1.0975	1.06962e-011
1.1025	8.7716e-012
1.1075	7.24374e-012
1.1125	6.35241e-012
1.1175	5.58775e-012
1.1225	5.0991e-012
1.1275	4.71058e-012
1.1325	4.37156e-012
1.1375	3.99866e-012
1.1425	3.79131e-012
1.1475	3.39466e-012
1.1525	3.22535e-012
1.1575	3.12395e-012
1.1625	2.96723e-012
1.1675	2.73451e-012
1.1725	2.67939e-012
1.1775	2.36612e-012
1.1825	2.41952e-012
1.1875	2.05519e-012
1.1925	2.04037e-012
1.1975	1.94612e-012
1.2025	1.89347e-012
1.2075	1.82138e-012
1.2125	1.64611e-012
1.2175	1.64951e-012
1.2225	1.48591e-012
1.2275	1.48476e-012
1.2325	1.4387e-012
1.2375	1.36133e-012
1.2425	1.30541e-012
1.2475	1.31926e-012
1.2525	1.22947e-012
1.2575	1.23644e-012
1.2625	1.17223e-012
1.2675	1.0974e-012
1.2725	1.1119e-012
1.2775	1.0067e-012
1.2825	9.66789e-013
1.2875	9.85367e-013
1.2925	9.69668e-013
1.2975	9.46794e-013
1.3025	9.0408e-013
1.3075	8.38906e-013
1.3125	7.61592e-013
1.3175	7.79592e-013
1.3225	7.86365e-013
1.3275	6.3646e-013
1.3325	7.07875e-013
1.3375	7.29605e-013
1.3425	6.72897e-013
1.3475	6.44458e-013
1.3525	6.06765e-013
1.3575	6.25182e-013
1.3625	5.7718e-013
1.3675	6.20175e-013
1.3725	5.23705e-013
1.3775	6.11977e-013
1.3825	5.39637e-013
1.3875	5.16294e-013
1.3925	5.13787e-013
1.3975	4.95684e-013
1.4025	6.74238e-012
1.4075	6.71835e-012
1.4125	6.78235e-012
1.4175	6.67834e-012
1.4225	6.68636e-012
1.4275	6.61805e-012
1.4325	6.62891e-012
1.4375	6.65034e-012
1.4425	6.64803e-012
1.4475	6.60719e-012
1.4525	3.43253e-013
1.4575	3.43674e-013
1.4625	3.23773e-013
1.4675	3.24111e-013
1.4725	3.5805e-013
1.4775	3.00193e-013
1.4825	2.95038e-013
1.4875	2.8478e-013
1.4925	2.65863e-013
1.4975	2.82224e-013
1.5025	2.48334e-013
1.5075	2.78765e-013
1.5125	2.73783e-013
1.5175	2.47138e-013
1.5225	2.35765e-013
1.5275	2.26818e-013
1.5325	2.00304e-013
1.5375	2.16239e-013
1.5425	2.09824e-013
1.5475	2.30491e-013
1.5525	1.91355e-013
1.5575	2.07306e-013
1.5625	1.87156e-013
1.5675	2.08001e-013
1.5725	1.92214e-013
1.5775	1.8216e-013
1.5825	1.86443e-013
1.5875	1.69007e-013
1.5925	1.7055e-013
1.5975	1.69669e-013
1.6025	1.5722e-013
1.6075	1.81607e-013
1.6125	1.65881e-013
1.6175	1.39749e-013
1.6225	1.47562e-013
1.6275	1.49031e-013
1.6325	1.62118e-013
1.6375	1.41827e-013
1.6425	1.45357e-013
1.6475	1.51172e-013
1.6525	1.33163e-013
1.6575	1.57637e-013
1.6625	1.21963e-013
1.6675	1.10605e-013
1.6725	1.31403e-013
1.6775	1.21713e-013
1.6825	1.29648e-013
1.6875	1.18871e-013
1.6925	1.1517e-013
1.6975	1.15737e-013
1.7025	1.06117e-013
1.7075	9.82787e-014
1.7125	1.12482e-013
1.7175	9.05706e-014
1.7225	9.74888e-014
1.7275	8.99097e-014
1.7325	8.0285e-014
1.7375	9.91175e-014
1.7425	9.75016e-014
1.7475	1.09341e-013
1.7525	9.53617e-014
1.7575	1.05349e-013
1.7625	8.95326e-014
1.7675	6.43837e-014
1.7725	8.32994e-014
1.7775	6.97494e-014
1.7825	8.25375e-014
1.7875	7.64507e-014
1.7925	7.86218e-014
1.7975	7.3896e-014
1.8025	6.7836e-014
1.8075	5.64234e-014
1.8125	7.29255e-014
1.8175	5.69471e-014
1.8225	6.26567e-014
1.8275	7.34401e-014
1.8325	7.05518e-014
1.8375	5.80746e-014
1.8425	5.2601e-014
1.8475	7.386e-014
1.8525	6.34375e-012
1.8575	6.33385e-012
1.8625	6.33941e-012
1.8675	6.32877e-012
1.8725	6.36071e-012
1.8775	6.34108e-012
1.8825	6.35423e-012
1.8875	6.33386e-012
1.8925	6.34495e-012
1.8975	6.34621e-012
1.9025	5.79943e-014
1.9075	5.66202e-014
1.9125	4.87466e-014
1.9175	5.43655e-014
1.9225	6.0752e-014
1.9275	5.45279e-014
1.9325	4.26456e-014
1.9375	4.49519e-014
1.9425	3.1455e-014
1.9475	4.2249e-014
1.9525	5.58569e-014
1.9575	4.1948e-014
1.9625	3.42224e-014
1.9675	3.39273e-014
1.9725	2.64374e-014
1.9775	3.18194e-014
1.9825	5.13476e-014
1.9875	4.15762e-014
1.9925	4.17215e-014
1.9975	2.79881e-014
2.0025	3.10808e-014
2.0075	2.99693e-014
2.0125	3.02081e-014
2.0175	2.78828e-014
2.0225	2.8467e-014
2.0275	3.55349e-014
2.0325	2.51797e-014
2.0375	2.99169e-014
2.0425	3.43614e-014
2.0475	2.98259e-014
2.0525	2.25449e-014
2.0575	3.23728e-014
2.0625	2.62569e-014
2.0675	3.26121e-014
2.0725	2.59986e-014
2.0775	3.44019e-014
2.0825	2.88936e-014
2.0875	2.35627e-014
2.0925	2.87629e-014
2.0975	3.33408e-014
2.1025	3.88387e-014
2.1075	2.09912e-014
2.1125	3.82812e-014
2.1175	2.62065e-014
2.1225	3.27868e-014
2.1275	3.32953e-014
2.1325	2.23616e-014
2.1375	1.87286e-014
2.1425	1.6026e-014
2.1475	2.37937e-014
2.1525	1.99439e-014
2.1575	3.50113e-014
2.1625	2.3001e-014
2.1675	1.40834e-014
2.1725	2.13328e-014
2.1775	2.3426e-014
2.1825	1.83805e-014
2.1875	1.58047e-014
2.1925	3.16944e-014
2.1975	2.1028e-014
2.2025	2.02679e-014
2.2075	1.82423e-014
2.2125	2.48696e-014
2.2175	2.64865e-014
2.2225	1.40345e-014
2.2275	2.06689e-014
2.2325	1.13396e-014
2.2375	1.59001e-014
2.2425	2.2222e-014
2.2475	1.11485e-014
2.2525	1.40558e-014
2.2575	1.80088e-014
2.2625	1.43957e-014
2.2675	1.71385e-014
2.2725	1.62539e-014
2.2775	1.64372e-014
2.2825	1.26143e-014
2.2875	1.3192e-014
2.2925	1.19488e-014
2.2975	2.12023e-014
2.3025	2.03842e-014
2.3075	2.33239e-014
2.3125	1.05924e-014
2.3175	1.64523e-014
2.3225	1.20635e-014
2.3275	1.51363e-014
2.3325	1.57512e-014
2.3375	1.24555e-014
2.3425	2.10241e-014
2.3475	1.4061e-014
2.3525	1.53922e-014
2.3575	3.12042e-014
2.3625	2.24799e-014
2.3675	9.61323e-015
2.3725	2.25475e-014
2.3775	6.64161e-015
2.3825	1.05088e-014
2.3875	1.10022e-014
2.3925	8.65537e-015
2.3975	8.39062e-015
2.4025	1.93906e-014
2.4075	1.28408e-014
2.4125	1.68769e-014
2.4175	1.37895e-014
2.4225	1.41886e-014
2.4275	8.54322e-015
2.4325	1.57927e-014
2.4375	8.12716e-015
2.4425	1.49371e-014
2.4475	1.09936e-014
2.4525	8.90859e-015
2.4575	1.49278e-014
2.4625	1.08423e-014
2.4675	8.35202e-015
2.4725	9.33021e-015
2.4775	1.36172e-014
2.4825	1.70153e-014
2.4875	1.03185e-014
2.4925	8.36015e-015
2.4975	8.24187e-015
2.5025	6.29894e-012
2.5075	6.30084e-012
2.5125	6.28814e-012
2.5175	6.30777e-012
2.5225	6.30598e-012
2.5275	6.29264e-012
2.5325	6.30096e-012
2.5375	6.29719e-012
2.5425	6.31218e-012
2.5475	6.30315e-012
2.5525	6.27425e-015
2.5575	4.85972e-015
2.5625	4.9311e-015
2.5675	8.20749e-015
2.5725	8.83057e-015
2.5775	5.46973e-015
2.5825	9.72371e-015
2.5875	7.68021e-015
2.5925	6.32813e-015
2.5975	1.27256e-014
2.6025	6.3e-012
2.6075	6.30297e-012
2.6125	6.31811e-012
2.6175	6.29471e-012
2.6225	6.28893e-012
2.6275	6.29266e-012
2.6325	6.29167e-012
2.6375	6.29394e-012
2.6425	6.30273e-012
2.6475	6.30239e-012
2.6525	1.49768e-014
2.6575	1.95023e-014
2.6625	8.1988e-015
2.6675	1.29294e-014
2.6725	1.53629e-014
2.6775	1.54814e-014
2.6825	3.32943e-014
2.6875	3.26154e-014
2.6925	3.84766e-014
2.6975	3.86778e-014
2.7025	2.04332e-014
2.7075	2.40515e-014
2.7125	2.398e-014
2.7175	4.51292e-014
2.7225	4.50263e-014
2.7275	4.46631e-014
2.7325	6.05683e-014
2.7375	8.61418e-014
2.7425	4.49297e-014
2.7475	7.88429e-014
2.7525	1.00882e-013
2.7575	1.40492e-013
2.7625	1.35538e-013
2.7675	1.26966e-013
2.7725	1.55157e-013
2.7775	1.53964e-013
2.7825	2.39206e-013
2.7875	2.78988e-013
2.7925	2.34699e-013
2.7975	3.49316e-013
2.8025	4.20862e-013
2.8075	4.7214e-013
2.8125	4.35475e-013
2.8175	5.35825e-013
2.8225	6.87905e-013
2.8275	8.80777e-013
2.8325	9.72815e-013
2.8375	1.04385e-012
2.8425	1.25934e-012
2.8475	1.52241e-012
2.8525	1.6952e-012
2.8575	1.81944e-012
2.8625	2.38186e-012
2.8675	2.78324e-012
2.8725	3.13188e-012
2.8775	3.82599e-012
2.8825	4.53485e-012
2.8875	5.23662e-012
2.8925	6.19275e-012
2.8975	7.00134e-012
2.9025	8.35478e-012
2.9075	9.749e-012
2.9125	1.15355e-011
2.9175	1.27978e-011
2.9225	1.51438e-011
2.9275	1.78567e-011
2.9325	2.03628e-011
2.9375	2.33183e-011
2.9425	2.69181e-011
2.9475	2.99215e-011
2.9525	3.40715e-011
2.9575	3.91494e-011
2.9625	4.45027e-011
2.9675	5.02318e-011
2.9725	5.72935e-011
2.9775	6.40221e-011
2.9825	7.08685e-011
2.9875	7.9348e-011
2.9925	8.98213e-011
2.9975	9.82794e-011
3.0025	1.09254e-010
3.0075	1.18915e-010
3.0125	1.31036e-010
3.0175	1.44657e-010
3.0225	1.54483e-010
3.0275	1.68585e-010
3.0325	1.81138e-010
3.0375	1.95212e-010
3.0425	2.04229e-010
3.0475	2.19299e-010
3.0525	2.30661e-010
3.0575	2.42495e-010
3.0625	2.52958e-010
3.0675	2.64948e-010
3.0725	2.75741e-010
3.0775	2.83914e-010
3.0825	2.93006e-010
3.0875	2.96223e-010
3.0925	3.0241e-010
3.0975	3.0657e-010
3.1025	3.08115e-010
3.1075	3.08056e-010
3.1125	3.06041e-010
3.1175	3.0047e-010
3.1225	3.0162e-010
3.1275	2.93228e-010
3.1325	2.82204e-010
3.1375	2.76876e-010
3.1425	2.68085e-010
3.1475	2.56111e-010
3.1525	2.54248e-010
3.1575	2.39587e-010
3.1625	2.22778e-010
3.1675	2.12556e-010
3.1725	1.97519e-010
3.1775	1.85975e-010
3.1825	1.70193e-010
3.1875	1.54827e-010
3.1925	1.41952e-010
3.1975	1.31428e-010
3.2025	1.11544e-010
3.2075	1.00996e-010
3.2125	8.93756e-011
3.2175	7.72968e-011
3.2225	6.99578e-011
3.2275	6.12717e-011
3.2325	5.15809e-011
3.2375	4.67178e-011
3.2425	3.91505e-011
3.2475	3.3993e-011
3.2525	2.94213e-011
3.2575	2.37448e-011
3.2625	1.97594e-011
3.2675	1.78955e-011
3.2725	1.49919e-011
3.2775	1.1049e-011
3.2825	9.07539e-012
3.2875	7.67212e-012
3.2925	6.60689e-012
3.2975	4.66313e-012
3.3025	4.05112e-012
3.3075	3.14101e-012
3.3125	2.37505e-012
3.3175	1.75023e-012
3.3225	1.635e-012
3.3275	1.04493e-012
3.3325	7.1487e-013
3.3375	7.50912e-013
3.3425	4.95329e-013
3.3475	2.83968e-013
3.3525	3.11417e-013
3.3575	2.76695e-013
3.3625	2.43063e-013
3.3675	1.5567e-013
3.3725	6.30998e-014
3.3775	1.10078e-013
3.3825	1.032e-013
3.3875	1.59206e-013
3.3925	9.73017e-014
3.3975	8.21355e-014
3.4025	9.42251e-014
3.4075	1.09383e-013
3.4125	9.67395e-014
3.4175	1.24463e-013
3.4225	1.59103e-013
3.4275	1.69479e-013
3.4325	1.67365e-013
3.4375	2.02159e-013
3.4425	2.13934e-013
3.4475	2.40384e-013
3.4525	2.64868e-013
3.4575	3.00638e-013
3.4625	3.43083e-013
3.4675	3.82288e-013
3.4725	4.08308e-013
3.4775	4.85118e-013
3.4825	5.04659e-013
3.4875	5.54737e-013
3.4925	6.35589e-013
3.4975	6.94895e-013
3.5025	7.61339e-013
3.5075	8.55966e-013
3.5125	9.31265e-013
3.5175	1.02551e-012
3.5225	1.13078e-012
3.5275	1.27008e-012
3.5325	1.36143e-012
3.5375	1.52848e-012
3.5425	1.64663e-012
3.5475	1.79492e-012
3.5525	1.92156e-012
3.5575	2.08581e-012
3.5625	2.26825e-012
3.5675	2.43301e-012
3.5725	2.64277e-012
3.5775	2.83728e-012
3.5825	3.07733e-012
3.5875	3.2387e-012
3.5925	3.4755e-012
3.5975	3.71974e-012
3.6025	3.95447e-012
3.6075	4.17985e-012
3.6125	4.44017e-012
3.6175	4.63591e-012
3.6225	4.93805e-012
3.6275	5.15261e-012
3.6325	5.29489e-012
3.6375	5.52269e-012
3.6425	5.79293e-012
3.6475	6.05226e-012
3.6525	6.19117e-012
3.6575	6.35854e-012
3.6625	6.56313e-012
3.6675	6.68637e-012
3.6725	6.84895e-012
3.6775	6.92981e-012
3.6825	7.02656e-012
3.6875	7.09941e-012
3.6925	7.12587e-012
3.6975	7.12993e-012
3.7025	7.02646e-012
3.7075	7.11246e-012
3.7125	6.96576e-012
3.7175	6.9731e-012
3.7225	6.91523e-012
3.7275	6.71704e-012
3.7325	6.63812e-012
3.7375	6.53171e-012
3.7425	6.35269e-012
3.7475	6.20222e-012
3.7525	5.9906e-012
3.7575	5.81443e-012
3.7625	5.48972e-012
3.7675	5.22948e-012
3.7725	4.98255e-012
3.7775	4.69753e-012
3.7825	4.58825e-012
3.7875	4.22443e-012
3.7925	3.99518e-012
3.7975	3.74613e-012
3.8025	3.54238e-012
3.8075	3.26517e-012
3.8125	3.00656e-012
3.8175	2.74512e-012
3.8225	2.52978e-012
3.8275	2.32318e-012
3.8325	2.07854e-012
3.8375	1.94619e-012
3.8425	1.786e-012
3.8475	1.61984e-012
3.8525	7.68374e-012
3.8575	7.54501e-012
3.8625	7.38079e-012
3.8675	7.24799e-012
3.8725	7.16433e-012
3.8775	7.06206e-012
3.8825	6.95604e-012
3.8875	6.87535e-012
3.8925	6.81406e-012
3.8975	6.75081e-012
3.9025	3.81157e-013
3.9075	3.29991e-013
3.9125	2.79241e-013
3.9175	2.43563e-013
3.9225	1.98371e-013
3.9275	1.75885e-013
3.9325	1.47084e-013
3.9375	1.11939e-013
3.9425	9.84923e-014
3.9475	8.73566e-014
3.9525	7.62913e-014
3.9575	6.29044e-014
3.9625	5.29673e-014
3.9675	4.45701e-014
3.9725	4.13036e-014
3.9775	2.31857e-014
3.9825	1.9719e-014
3.9875	1.80701e-014
3.9925	1.70332e-014
3.9975	1.3188e-014
***