##make bins

$m_{ee}$ (GeV/$c^2$)
7
dN/d$m_{ee}$ ($c^2$/GeV)
dN/d$m_{ee}$ ($c^2$/GeV)
dN/d$m_{ee}$ ($c^2$/GeV)
dN/d$m_{ee}$ ($c^2$/GeV)
dN/d$m_{ee}$ ($c^2$/GeV)
dN/d$m_{ee}$ ($c^2$/GeV)
dN/d$m_{ee}$ ($c^2$/GeV)
0.5-1.0 Gev/$c$ x $10^3$
1.0-1.5 Gev/$c$ x $10^2$
1.5-2.0 Gev/$c$ x $10$
2.0-2.5 Gev/$c$
2.5-3.0 Gev/$c$ x $10^{-1}$
3.0-4.0 Gev/$c$ x $10^{-2}$
4.0-5.0 Gev/$c$ x $10^{-3}$
Yes
None
None
0
0.0025	0.344773
0.0075	0.34381
0.0125	0.166877
0.0175	0.0913067
0.0225	0.0644794
0.0275	0.049315
0.0325	0.0401671
0.0375	0.0336916
0.0425	0.0285007
0.0475	0.0242249
0.0525	0.0201205
0.0575	0.0181136
0.0625	0.0154772
0.0675	0.0140599
0.0725	0.0122327
0.0775	0.0103017
0.0825	0.00935222
0.0875	0.00784556
0.0925	0.00655729
0.0975	0.00479947
0.1025	0.00440163
0.1075	0.00350409
0.1125	0.00283561
0.1175	0.00219378
0.1225	0.00184848
0.1275	0.00152961
0.1325	0.00142117
0.1375	0.00133635
0.1425	0.00140162
0.1475	0.00136292
0.1525	0.00133178
0.1575	0.00123844
0.1625	0.00135291
0.1675	0.00124862
0.1725	0.00126248
0.1775	0.00123547
0.1825	0.00121573
0.1875	0.00124966
0.1925	0.00114309
0.1975	0.00111923
0.2025	0.0011967
0.2075	0.00115004
0.2125	0.00114963
0.2175	0.0011169
0.2225	0.00120643
0.2275	0.0011519
0.2325	0.00112946
0.2375	0.00110555
0.2425	0.00114528
0.2475	0.00106908
0.2525	0.00105293
0.2575	0.00105687
0.2625	0.00113949
0.2675	0.00103937
0.2725	0.00101891
0.2775	0.00102166
0.2825	0.000975376
0.2875	0.00101745
0.2925	0.001039
0.2975	0.00100259
0.3025	0.000937042
0.3075	0.000922292
0.3125	0.000921422
0.3175	0.000944506
0.3225	0.000913043
0.3275	0.000950885
0.3325	0.000878533
0.3375	0.000811939
0.3425	0.000876018
0.3475	0.00085953
0.3525	0.000847076
0.3575	0.00078619
0.3625	0.00077092
0.3675	0.000804407
0.3725	0.000774602
0.3775	0.000795367
0.3825	0.000741966
0.3875	0.000754291
0.3925	0.000726252
0.3975	0.000684406
0.4025	0.000655936
0.4075	0.000641576
0.4125	0.000598907
0.4175	0.000623348
0.4225	0.000601275
0.4275	0.000601333
0.4325	0.000546317
0.4375	0.00055203
0.4425	0.00052858
0.4475	0.000529689
0.4525	0.000525642
0.4575	0.000469447
0.4625	0.000478131
0.4675	0.000439018
0.4725	0.000422989
0.4775	0.000418841
0.4825	0.000412095
0.4875	0.000395261
0.4925	0.000388833
0.4975	0.0003803
0.5025	0.000367463
0.5075	0.00035828
0.5125	0.00034449
0.5175	0.000336143
0.5225	0.000342896
0.5275	0.000346024
0.5325	0.000341506
0.5375	0.000335194
0.5425	0.000345454
0.5475	0.00033299
0.5525	0.000317616
0.5575	0.0003374
0.5625	0.000338955
0.5675	0.000331017
0.5725	0.000338366
0.5775	0.000338693
0.5825	0.000333239
0.5875	0.000331412
0.5925	0.000335712
0.5975	0.000335518
0.6025	0.000335447
0.6075	0.0003382
0.6125	0.00032487
0.6175	0.000334041
0.6225	0.000314973
0.6275	0.000301381
0.6325	0.000302984
0.6375	0.000286194
0.6425	0.000272695
0.6475	0.000267036
0.6525	0.000260447
0.6575	0.000250484
0.6625	0.000273793
0.6675	0.000267052
0.6725	0.000279748
0.6775	0.000287625
0.6825	0.000295984
0.6875	0.00030241
0.6925	0.000314113
0.6975	0.00031503
0.7025	0.00032385
0.7075	0.000337
0.7125	0.00034331
0.7175	0.000373729
0.7225	0.000366785
0.7275	0.000378485
0.7325	0.000394536
0.7375	0.000406136
0.7425	0.000418385
0.7475	0.000426408
0.7525	0.000467339
0.7575	0.000511854
0.7625	0.000598911
0.7675	0.000862373
0.7725	0.00134223
0.7775	0.00205723
0.7825	0.00236818
0.7875	0.00200305
0.7925	0.0012899
0.7975	0.000764258
0.8025	0.000487662
0.8075	0.000362689
0.8125	0.000299538
0.8175	0.000254647
0.8225	0.000227216
0.8275	0.000219185
0.8325	0.000190862
0.8375	0.000177227
0.8425	0.000172042
0.8475	0.000161924
0.8525	0.000148939
0.8575	0.000156428
0.8625	0.000134524
0.8675	0.000129266
0.8725	0.00012227
0.8775	0.000121599
0.8825	0.000118777
0.8875	0.000108117
0.8925	0.000112816
0.8975	9.98867e-005
0.9025	0.0001016
0.9075	9.6063e-005
0.9125	9.64145e-005
0.9175	9.1368e-005
0.9225	9.29799e-005
0.9275	9.11142e-005
0.9325	8.9128e-005
0.9375	8.16843e-005
0.9425	8.03472e-005
0.9475	7.8548e-005
0.9525	8.07582e-005
0.9575	7.20884e-005
0.9625	6.90983e-005
0.9675	7.95144e-005
0.9725	8.17191e-005
0.9775	7.73459e-005
0.9825	8.07985e-005
0.9875	7.94988e-005
0.9925	9.69814e-005
0.9975	0.000127234
1.0025	0.000213732
1.0075	0.000409342
1.0125	0.000698456
1.0175	0.000942454
1.0225	0.00093399
1.0275	0.000662656
1.0325	0.00037736
1.0375	0.000189829
1.0425	0.000107076
1.0475	7.95542e-005
1.0525	6.78194e-005
1.0575	5.85783e-005
1.0625	5.82887e-005
1.0675	5.8924e-005
1.0725	5.77507e-005
1.0775	5.24805e-005
1.0825	5.24693e-005
1.0875	5.03115e-005
1.0925	4.97697e-005
1.0975	4.36024e-005
1.1025	4.16121e-005
1.1075	4.62276e-005
1.1125	5.08242e-005
1.1175	4.34181e-005
1.1225	4.05074e-005
1.1275	4.67781e-005
1.1325	4.12398e-005
1.1375	4.03428e-005
1.1425	4.18593e-005
1.1475	4.88316e-005
1.1525	4.18701e-005
1.1575	4.54567e-005
1.1625	3.93165e-005
1.1675	3.35154e-005
1.1725	3.5635e-005
1.1775	3.65775e-005
1.1825	3.61784e-005
1.1875	3.33113e-005
1.1925	3.68819e-005
1.1975	3.89836e-005
1.2025	3.49817e-005
1.2075	3.14813e-005
1.2125	3.42396e-005
1.2175	3.73228e-005
1.2225	2.90984e-005
1.2275	3.06769e-005
1.2325	3.46135e-005
1.2375	3.70351e-005
1.2425	3.03127e-005
1.2475	3.25026e-005
1.2525	2.9363e-005
1.2575	2.65001e-005
1.2625	2.83343e-005
1.2675	3.18628e-005
1.2725	2.89522e-005
1.2775	2.77508e-005
1.2825	3.07688e-005
1.2875	2.77998e-005
1.2925	2.63429e-005
1.2975	2.92604e-005
1.3025	3.20854e-005
1.3075	2.88657e-005
1.3125	2.49318e-005
1.3175	1.91508e-005
1.3225	2.46884e-005
1.3275	2.70109e-005
1.3325	2.68664e-005
1.3375	2.5416e-005
1.3425	2.29879e-005
1.3475	1.99058e-005
1.3525	2.48402e-005
1.3575	2.67195e-005
1.3625	2.54309e-005
1.3675	2.03685e-005
1.3725	2.44468e-005
1.3775	2.5566e-005
1.3825	2.15512e-005
1.3875	2.24142e-005
1.3925	2.83e-005
1.3975	2.47475e-005
1.4025	2.3023e-005
1.4075	2.05883e-005
1.4125	2.66321e-005
1.4175	2.13077e-005
1.4225	1.89644e-005
1.4275	2.37658e-005
1.4325	1.7767e-005
1.4375	2.07193e-005
1.4425	2.08921e-005
1.4475	2.18961e-005
1.4525	2.06551e-005
1.4575	2.02888e-005
1.4625	1.60332e-005
1.4675	2.23916e-005
1.4725	2.09275e-005
1.4775	1.83144e-005
1.4825	2.29565e-005
1.4875	1.68037e-005
1.4925	1.87142e-005
1.4975	1.94412e-005
1.5025	1.96388e-005
1.5075	1.44349e-005
1.5125	2.06558e-005
1.5175	1.87716e-005
1.5225	1.78465e-005
1.5275	1.70182e-005
1.5325	1.60972e-005
1.5375	1.4936e-005
1.5425	1.70394e-005
1.5475	1.37637e-005
1.5525	1.59154e-005
1.5575	1.80117e-005
1.5625	1.34213e-005
1.5675	1.60064e-005
1.5725	1.184e-005
1.5775	1.28967e-005
1.5825	1.53216e-005
1.5875	1.27031e-005
1.5925	1.5051e-005
1.5975	1.35606e-005
1.6025	1.44963e-005
1.6075	1.34578e-005
1.6125	1.3485e-005
1.6175	1.30797e-005
1.6225	1.5739e-005
1.6275	1.06915e-005
1.6325	1.27902e-005
1.6375	1.4318e-005
1.6425	1.58114e-005
1.6475	1.34864e-005
1.6525	1.474e-005
1.6575	1.4794e-005
1.6625	1.2853e-005
1.6675	1.3438e-005
1.6725	1.21173e-005
1.6775	1.34081e-005
1.6825	1.14224e-005
1.6875	8.7992e-006
1.6925	9.1304e-006
1.6975	9.00249e-006
1.7025	1.1714e-005
1.7075	1.12447e-005
1.7125	1.11491e-005
1.7175	1.36992e-005
1.7225	1.13295e-005
1.7275	1.19554e-005
1.7325	1.26731e-005
1.7375	1.01286e-005
1.7425	8.3795e-006
1.7475	9.82954e-006
1.7525	8.25661e-006
1.7575	8.23415e-006
1.7625	1.10897e-005
1.7675	1.15218e-005
1.7725	7.35248e-006
1.7775	1.03652e-005
1.7825	7.12652e-006
1.7875	8.11451e-006
1.7925	9.08581e-006
1.7975	9.04203e-006
1.8025	5.8361e-006
1.8075	8.75415e-006
1.8125	5.82488e-006
1.8175	8.33938e-006
1.8225	7.84303e-006
1.8275	7.53359e-006
1.8325	7.97328e-006
1.8375	8.86355e-006
1.8425	7.53498e-006
1.8475	5.94923e-006
1.8525	8.37551e-006
1.8575	6.73618e-006
1.8625	9.85934e-006
1.8675	9.22157e-006
1.8725	7.3317e-006
1.8775	8.54087e-006
1.8825	9.79809e-006
1.8875	7.18057e-006
1.8925	5.83559e-006
1.8975	6.12313e-006
1.9025	5.7034e-006
1.9075	5.79018e-006
1.9125	5.09047e-006
1.9175	9.52067e-006
1.9225	7.2834e-006
1.9275	6.24969e-006
1.9325	7.00414e-006
1.9375	6.33253e-006
1.9425	7.66127e-006
1.9475	5.26702e-006
1.9525	4.54533e-006
1.9575	6.90195e-006
1.9625	3.43093e-006
1.9675	4.31288e-006
1.9725	3.64895e-006
1.9775	6.81712e-006
1.9825	2.39575e-006
1.9875	7.03756e-006
1.9925	4.13976e-006
1.9975	4.55402e-006
2.0025	6.16175e-006
2.0075	6.53176e-006
2.0125	4.29673e-006
2.0175	6.59762e-006
2.0225	5.92209e-006
2.0275	3.69948e-006
2.0325	6.04162e-006
2.0375	3.87325e-006
2.0425	4.52124e-006
2.0475	5.36695e-006
2.0525	4.84841e-006
2.0575	4.78675e-006
2.0625	3.59452e-006
2.0675	4.25095e-006
2.0725	4.3059e-006
2.0775	4.80112e-006
2.0825	5.15246e-006
2.0875	4.73037e-006
2.0925	3.32596e-006
2.0975	5.5511e-006
2.1025	4.8818e-006
2.1075	3.58032e-006
2.1125	4.774e-006
2.1175	5.81041e-006
2.1225	3.31274e-006
2.1275	1.40987e-006
2.1325	3.40882e-006
2.1375	3.67488e-006
2.1425	3.87114e-006
2.1475	3.09586e-006
2.1525	2.60694e-006
2.1575	4.26401e-006
2.1625	3.28322e-006
2.1675	4.51803e-006
2.1725	2.76876e-006
2.1775	3.51511e-006
2.1825	3.97872e-006
2.1875	4.51043e-006
2.1925	4.03421e-006
2.1975	9.37273e-007
2.2025	2.11322e-006
2.2075	1.83903e-006
2.2125	3.23907e-006
2.2175	4.01634e-006
2.2225	2.06196e-006
2.2275	4.4536e-006
2.2325	3.79494e-006
2.2375	2.78512e-006
2.2425	2.80364e-006
2.2475	3.05572e-006
2.2525	3.68951e-006
2.2575	2.1037e-006
2.2625	2.54507e-006
2.2675	3.72404e-006
2.2725	1.36716e-006
2.2775	4.49216e-006
2.2825	2.28843e-006
2.2875	2.76891e-006
2.2925	1.85042e-006
2.2975	3.75045e-006
2.3025	2.37137e-006
2.3075	2.32814e-006
2.3125	1.35928e-006
2.3175	1.23655e-006
2.3225	3.00372e-006
2.3275	1.81807e-006
2.3325	2.54971e-006
2.3375	3.08323e-006
2.3425	2.30992e-006
2.3475	5.65321e-006
2.3525	1.59688e-006
2.3575	2.44118e-006
2.3625	1.76896e-006
2.3675	1.56031e-006
2.3725	3.94171e-006
2.3775	2.49227e-006
2.3825	3.06773e-006
2.3875	2.28971e-006
2.3925	3.49374e-006
2.3975	2.52689e-006
2.4025	4.36715e-006
2.4075	1.54122e-006
2.4125	1.79127e-006
2.4175	1.52448e-006
2.4225	3.46433e-006
2.4275	1.51217e-006
2.4325	1.30669e-006
2.4375	1.57706e-006
2.4425	2.51195e-006
2.4475	2.0479e-006
2.4525	3.77453e-006
2.4575	3.0445e-006
2.4625	2.00825e-006
2.4675	1.97653e-006
2.4725	2.07739e-006
2.4775	8.20976e-007
2.4825	1.57433e-006
2.4875	1.13151e-006
2.4925	1.79405e-006
2.4975	9.00421e-007
2.5025	1.31329e-006
2.5075	2.06936e-006
2.5125	1.29276e-006
2.5175	8.15387e-007
2.5225	1.74201e-006
2.5275	1.75285e-006
2.5325	5.69969e-007
2.5375	8.6112e-007
2.5425	1.07219e-006
2.5475	1.10201e-006
2.5525	1.05038e-006
2.5575	1.52296e-006
2.5625	1.78413e-006
2.5675	1.54306e-006
2.5725	6.03471e-007
2.5775	1.06769e-006
2.5825	1.10023e-006
2.5875	2.75565e-006
2.5925	1.52057e-006
2.5975	5.72215e-007
2.6025	1.05552e-006
2.6075	1.68717e-006
2.6125	1.27319e-006
2.6175	1.29848e-006
2.6225	2.27566e-006
2.6275	8.67446e-007
2.6325	1.09848e-006
2.6375	1.73373e-006
2.6425	1.58665e-006
2.6475	1.26758e-006
2.6525	1.54318e-006
2.6575	1.31889e-006
2.6625	2.50409e-006
2.6675	2.70812e-006
2.6725	1.74036e-006
2.6775	2.23093e-006
2.6825	7.45024e-007
2.6875	1.75298e-006
2.6925	1.12136e-006
2.6975	8.0555e-007
2.7025	1.29207e-006
2.7075	5.75467e-007
2.7125	1.72847e-006
2.7175	7.96455e-007
2.7225	1.28097e-006
2.7275	7.83445e-007
2.7325	1.77186e-006
2.7375	6.28986e-007
2.7425	1.04913e-006
2.7475	8.12219e-007
2.7525	1.02169e-006
2.7575	1.04358e-006
2.7625	1.27443e-006
2.7675	8.71453e-007
2.7725	1.0532e-006
2.7775	1.03495e-006
2.7825	8.09884e-007
2.7875	1.26132e-006
2.7925	8.00029e-007
2.7975	1.05257e-006
2.8025	5.04766e-007
2.8075	7.19742e-008
2.8125	8.11813e-007
2.8175	1.71685e-006
2.8225	1.01933e-006
2.8275	3.17123e-006
2.8325	8.34496e-007
2.8375	8.09984e-007
2.8425	7.53638e-007
2.8475	1.03009e-006
2.8525	1.29384e-006
2.8575	1.51939e-006
2.8625	7.56862e-007
2.8675	1.47966e-006
2.8725	1.05257e-006
2.8775	2.90201e-007
2.8825	5.24425e-007
2.8875	7.79656e-007
2.8925	4.88073e-007
2.8975	5.82597e-007
2.9025	2.80805e-007
2.9075	9.9604e-007
2.9125	2.85515e-007
2.9175	1.0222e-006
2.9225	5.35175e-007
2.9275	3.17695e-007
2.9325	5.72558e-007
2.9375	3.1129e-007
2.9425	3.26839e-007
2.9475	5.77401e-007
2.9525	3.62803e-007
2.9575	1.1607e-006
2.9625	1.27557e-006
2.9675	7.82238e-007
2.9725	8.58088e-007
2.9775	1.14132e-006
2.9825	2.002e-006
2.9875	1.72209e-006
2.9925	3.04294e-006
2.9975	3.09526e-006
3.0025	4.81003e-006
3.0075	6.62336e-006
3.0125	7.92576e-006
3.0175	1.04008e-005
3.0225	1.25014e-005
3.0275	1.58989e-005
3.0325	1.99586e-005
3.0375	2.43781e-005
3.0425	2.85312e-005
3.0475	3.34901e-005
3.0525	3.94325e-005
3.0575	4.45759e-005
3.0625	4.95018e-005
3.0675	5.46936e-005
3.0725	5.89625e-005
3.0775	6.35277e-005
3.0825	6.7043e-005
3.0875	6.88668e-005
3.0925	7.07326e-005
3.0975	7.04063e-005
3.1025	6.97783e-005
3.1075	6.76475e-005
3.1125	6.40374e-005
3.1175	6.04712e-005
3.1225	5.5872e-005
3.1275	5.0456e-005
3.1325	4.51908e-005
3.1375	3.92313e-005
3.1425	3.4419e-005
3.1475	2.94298e-005
3.1525	2.49086e-005
3.1575	1.99335e-005
3.1625	1.60857e-005
3.1675	1.26027e-005
3.1725	1.05362e-005
3.1775	7.61261e-006
3.1825	6.50901e-006
3.1875	5.01865e-006
3.1925	3.38203e-006
3.1975	2.52669e-006
3.2025	1.91194e-006
3.2075	1.75051e-006
3.2125	1.54604e-006
3.2175	5.72227e-007
3.2225	7.96839e-007
3.2275	7.39505e-007
3.2325	7.13102e-007
3.2375	1.56213e-007
3.2425	8.47048e-007
3.2475	5.05905e-008
3.2525	3.26716e-007
3.2575	4.11225e-008
3.2625	5.70057e-008
3.2675	2.86639e-007
3.2725	5.6473e-007
3.2775	2.24236e-008
3.2825	3.8464e-008
3.2875	8.1994e-008
3.2925	7.47623e-007
3.2975	2.30477e-008
3.3025	2.5951e-007
3.3075	3.04702e-007
3.3125	1.67138e-008
3.3175	2.56984e-007
3.3225	2.67914e-007
3.3275	2.44482e-007
3.3325	2.72351e-007
3.3375	2.63259e-007
3.3425	7.52234e-007
3.3475	7.58085e-007
3.3525	2.50928e-007
3.3575	5.03627e-007
3.3625	4.98176e-007
3.3675	1.08984e-008
3.3725	2.72609e-007
3.3775	4.33596e-008
3.3825	4.42299e-008
3.3875	3.07003e-007
3.3925	5.42383e-007
3.3975	5.04291e-008
3.4025	2.21746e-008
3.4075	5.26644e-007
3.4125	7.1984e-008
3.4175	5.02898e-008
3.4225	2.56149e-007
3.4275	1.08923e-008
3.4325	5.52241e-007
3.4375	1.78155e-008
3.4425	1.15657e-008
3.4475	5.00312e-008
3.4525	2.87742e-008
3.4575	2.51215e-007
3.4625	2.17439e-008
3.4675	1.40848e-008
3.4725	3.34047e-008
3.4775	2.65103e-007
3.4825	9.99699e-008
3.4875	5.07304e-007
3.4925	3.94858e-009
3.4975	1.57943e-008
3.5025	3.27791e-008
3.5075	2.74791e-008
3.5125	4.89014e-007
3.5175	5.59029e-008
3.5225	3.65063e-008
3.5275	2.66292e-007
3.5325	2.4777e-008
3.5375	2.88295e-007
3.5425	3.63179e-008
3.5475	7.5479e-008
3.5525	5.3458e-007
3.5575	3.12945e-007
3.5625	5.53061e-007
3.5675	9.80223e-008
3.5725	8.69656e-008
3.5775	1.28419e-007
3.5825	3.7145e-007
3.5875	1.78053e-007
3.5925	7.45861e-007
3.5975	4.77498e-007
3.6025	4.9457e-007
3.6075	5.24176e-007
3.6125	5.94309e-007
3.6175	3.52376e-007
3.6225	4.25843e-007
3.6275	4.891e-007
3.6325	7.20107e-007
3.6375	5.25205e-007
3.6425	5.65142e-007
3.6475	6.13174e-007
3.6525	6.89565e-007
3.6575	9.02868e-007
3.6625	6.97206e-007
3.6675	7.20794e-007
3.6725	1.19907e-006
3.6775	1.00521e-006
3.6825	1.02081e-006
3.6875	1.00629e-006
3.6925	1.24409e-006
3.6975	7.38114e-007
3.7025	1.21142e-006
3.7075	7.27027e-007
3.7125	6.53016e-007
3.7175	6.44986e-007
3.7225	1.07587e-006
3.7275	5.63897e-007
3.7325	5.24382e-007
3.7375	4.49827e-007
3.7425	4.01917e-007
3.7475	3.96666e-007
3.7525	8.37678e-007
3.7575	3.05863e-007
3.7625	5.00239e-007
3.7675	7.08906e-007
3.7725	2.09865e-007
3.7775	3.95222e-007
3.7825	1.39957e-007
3.7875	3.75505e-007
3.7925	1.13491e-007
3.7975	8.83064e-008
3.8025	8.4651e-008
3.8075	2.92503e-007
3.8125	4.90216e-008
3.8175	4.68651e-008
3.8225	6.72932e-008
3.8275	2.76806e-007
3.8325	3.07856e-007
3.8375	4.95815e-007
3.8425	5.38597e-007
3.8475	2.60835e-007
3.8525	2.60846e-007
3.8575	1.52766e-008
3.8625	2.89705e-009
3.8675	2.44055e-007
3.8725	9.6311e-009
3.8775	4.2541e-008
3.8825	1.26933e-008
3.8875	4.84213e-007
3.8925	3.59704e-010
3.8975	2.53896e-007
3.9025	4.97796e-007
3.9075	8.10858e-009
3.9125	3.34756e-008
3.9175	4.51221e-008
3.9225	2.60586e-008
3.9275	2.76538e-007
3.9325	2.41976e-007
3.9375	2.41986e-007
3.9425	2.49428e-007
3.9475	3.78116e-008
3.9525	4.01713e-008
3.9575	2.41983e-007
3.9625	8.32289e-011
3.9675	2.65665e-007
3.9725	1.24669e-008
3.9775	2.50147e-007
3.9825	1.5552e-008
3.9875	4.83922e-007
3.9925	1.36704e-008
3.9975	3.76413e-008
***
0.0025	0.0283122
0.0075	0.028794
0.0125	0.0148316
0.0175	0.00838878
0.0225	0.00562058
0.0275	0.00435494
0.0325	0.00347184
0.0375	0.00290036
0.0425	0.00243198
0.0475	0.00204889
0.0525	0.00180134
0.0575	0.00158128
0.0625	0.00133768
0.0675	0.00118389
0.0725	0.00102572
0.0775	0.000864955
0.0825	0.000753545
0.0875	0.000623759
0.0925	0.000533667
0.0975	0.000447711
0.1025	0.000361677
0.1075	0.000302193
0.1125	0.000245015
0.1175	0.000197006
0.1225	0.000160522
0.1275	0.000136793
0.1325	0.000120581
0.1375	0.000120122
0.1425	0.000114193
0.1475	0.000110501
0.1525	0.000108508
0.1575	0.000104534
0.1625	9.95818e-005
0.1675	9.56765e-005
0.1725	8.94346e-005
0.1775	8.77446e-005
0.1825	8.45729e-005
0.1875	8.08911e-005
0.1925	7.9645e-005
0.1975	7.40292e-005
0.2025	7.53485e-005
0.2075	7.34985e-005
0.2125	6.90556e-005
0.2175	6.67982e-005
0.2225	6.29445e-005
0.2275	6.34904e-005
0.2325	5.97018e-005
0.2375	6.05768e-005
0.2425	5.81762e-005
0.2475	5.74601e-005
0.2525	5.55149e-005
0.2575	5.27514e-005
0.2625	4.90898e-005
0.2675	5.01583e-005
0.2725	4.75087e-005
0.2775	4.80571e-005
0.2825	4.54475e-005
0.2875	4.4731e-005
0.2925	4.47894e-005
0.2975	4.09841e-005
0.3025	4.06998e-005
0.3075	4.17727e-005
0.3125	3.99041e-005
0.3175	3.88939e-005
0.3225	3.5671e-005
0.3275	3.49512e-005
0.3325	3.81126e-005
0.3375	3.53775e-005
0.3425	3.44664e-005
0.3475	3.31647e-005
0.3525	3.38451e-005
0.3575	2.92665e-005
0.3625	2.86074e-005
0.3675	2.96908e-005
0.3725	2.80407e-005
0.3775	2.79332e-005
0.3825	2.69035e-005
0.3875	2.58403e-005
0.3925	2.40572e-005
0.3975	2.42484e-005
0.4025	2.4103e-005
0.4075	2.22107e-005
0.4125	2.26249e-005
0.4175	2.11116e-005
0.4225	2.00176e-005
0.4275	1.99788e-005
0.4325	1.82868e-005
0.4375	1.90782e-005
0.4425	1.7793e-005
0.4475	1.69954e-005
0.4525	1.61134e-005
0.4575	1.62462e-005
0.4625	1.49258e-005
0.4675	1.47424e-005
0.4725	1.38234e-005
0.4775	1.41032e-005
0.4825	1.34561e-005
0.4875	1.28685e-005
0.4925	1.2371e-005
0.4975	1.17617e-005
0.5025	1.16034e-005
0.5075	1.15605e-005
0.5125	1.17057e-005
0.5175	1.10878e-005
0.5225	1.09954e-005
0.5275	1.14526e-005
0.5325	1.15002e-005
0.5375	1.09008e-005
0.5425	1.14536e-005
0.5475	1.15044e-005
0.5525	1.14604e-005
0.5575	1.1389e-005
0.5625	1.13047e-005
0.5675	1.106e-005
0.5725	1.14463e-005
0.5775	1.19775e-005
0.5825	1.14131e-005
0.5875	1.17107e-005
0.5925	1.1937e-005
0.5975	1.17308e-005
0.6025	1.19654e-005
0.6075	1.16083e-005
0.6125	1.20702e-005
0.6175	1.14553e-005
0.6225	1.14411e-005
0.6275	1.15079e-005
0.6325	1.07168e-005
0.6375	1.10515e-005
0.6425	1.02443e-005
0.6475	1.02595e-005
0.6525	1.04588e-005
0.6575	1.00659e-005
0.6625	1.09743e-005
0.6675	1.13034e-005
0.6725	1.09341e-005
0.6775	1.16334e-005
0.6825	1.19039e-005
0.6875	1.24282e-005
0.6925	1.21318e-005
0.6975	1.33825e-005
0.7025	1.38828e-005
0.7075	1.4195e-005
0.7125	1.52425e-005
0.7175	1.59595e-005
0.7225	1.53443e-005
0.7275	1.65924e-005
0.7325	1.72007e-005
0.7375	1.80099e-005
0.7425	1.85393e-005
0.7475	2.00719e-005
0.7525	2.12444e-005
0.7575	2.44413e-005
0.7625	3.31054e-005
0.7675	4.66058e-005
0.7725	6.8669e-005
0.7775	9.38079e-005
0.7825	0.000101514
0.7875	8.88132e-005
0.7925	6.1318e-005
0.7975	3.93005e-005
0.8025	2.47707e-005
0.8075	1.7108e-005
0.8125	1.32956e-005
0.8175	1.15103e-005
0.8225	9.7019e-006
0.8275	9.4233e-006
0.8325	8.39003e-006
0.8375	7.28494e-006
0.8425	7.02784e-006
0.8475	6.75801e-006
0.8525	6.41784e-006
0.8575	5.91515e-006
0.8625	5.79095e-006
0.8675	4.91133e-006
0.8725	5.22811e-006
0.8775	4.89508e-006
0.8825	4.66628e-006
0.8875	4.74327e-006
0.8925	4.51649e-006
0.8975	4.31009e-006
0.9025	4.09377e-006
0.9075	4.26308e-006
0.9125	3.50715e-006
0.9175	3.8023e-006
0.9225	3.6838e-006
0.9275	3.4116e-006
0.9325	3.53763e-006
0.9375	3.89397e-006
0.9425	3.51654e-006
0.9475	3.2716e-006
0.9525	3.20345e-006
0.9575	3.68273e-006
0.9625	3.35495e-006
0.9675	3.23091e-006
0.9725	3.22951e-006
0.9775	3.53971e-006
0.9825	3.74406e-006
0.9875	4.46624e-006
0.9925	5.62651e-006
0.9975	9.32803e-006
1.0025	1.57841e-005
1.0075	2.7432e-005
1.0125	4.11201e-005
1.0175	5.06777e-005
1.0225	4.97721e-005
1.0275	3.83607e-005
1.0325	2.50645e-005
1.0375	1.35175e-005
1.0425	7.25233e-006
1.0475	4.77618e-006
1.0525	3.54305e-006
1.0575	2.81e-006
1.0625	2.63397e-006
1.0675	2.3239e-006
1.0725	2.44129e-006
1.0775	2.65398e-006
1.0825	2.15655e-006
1.0875	1.95112e-006
1.0925	2.05465e-006
1.0975	2.27407e-006
1.1025	1.91163e-006
1.1075	2.58086e-006
1.1125	1.7823e-006
1.1175	1.79326e-006
1.1225	2.26391e-006
1.1275	1.91463e-006
1.1325	1.75062e-006
1.1375	2.01897e-006
1.1425	1.96234e-006
1.1475	1.77412e-006
1.1525	1.56657e-006
1.1575	1.74518e-006
1.1625	1.88632e-006
1.1675	1.70655e-006
1.1725	1.91714e-006
1.1775	1.74536e-006
1.1825	1.40647e-006
1.1875	1.52693e-006
1.1925	1.54016e-006
1.1975	1.27106e-006
1.2025	1.4063e-006
1.2075	1.63744e-006
1.2125	1.4507e-006
1.2175	1.33571e-006
1.2225	1.5402e-006
1.2275	1.36096e-006
1.2325	1.766e-006
1.2375	1.25993e-006
1.2425	1.35311e-006
1.2475	1.35867e-006
1.2525	1.19368e-006
1.2575	1.2761e-006
1.2625	1.4363e-006
1.2675	8.91116e-007
1.2725	1.33567e-006
1.2775	1.48797e-006
1.2825	9.31331e-007
1.2875	1.20562e-006
1.2925	1.1792e-006
1.2975	1.26686e-006
1.3025	1.13905e-006
1.3075	1.00995e-006
1.3125	1.03534e-006
1.3175	1.33905e-006
1.3225	1.29675e-006
1.3275	1.30155e-006
1.3325	1.33368e-006
1.3375	9.15703e-007
1.3425	1.00631e-006
1.3475	1.14414e-006
1.3525	1.25642e-006
1.3575	1.18179e-006
1.3625	1.05678e-006
1.3675	6.92779e-007
1.3725	9.84138e-007
1.3775	9.08432e-007
1.3825	1.01331e-006
1.3875	8.92415e-007
1.3925	1.14878e-006
1.3975	8.53355e-007
1.4025	1.15548e-006
1.4075	8.65368e-007
1.4125	7.5956e-007
1.4175	1.04295e-006
1.4225	8.0108e-007
1.4275	8.51995e-007
1.4325	7.90094e-007
1.4375	1.09108e-006
1.4425	8.76282e-007
1.4475	8.69925e-007
1.4525	7.64806e-007
1.4575	5.50076e-007
1.4625	9.52737e-007
1.4675	9.22874e-007
1.4725	7.92201e-007
1.4775	5.70651e-007
1.4825	6.32208e-007
1.4875	8.01736e-007
1.4925	7.03808e-007
1.4975	6.80751e-007
1.5025	9.7575e-007
1.5075	9.50497e-007
1.5125	7.08253e-007
1.5175	9.05713e-007
1.5225	1.01706e-006
1.5275	9.4955e-007
1.5325	1.00352e-006
1.5375	6.56007e-007
1.5425	7.75495e-007
1.5475	6.40942e-007
1.5525	5.0882e-007
1.5575	8.90562e-007
1.5625	7.49885e-007
1.5675	5.62688e-007
1.5725	5.90296e-007
1.5775	7.28009e-007
1.5825	6.42537e-007
1.5875	7.51029e-007
1.5925	6.71376e-007
1.5975	4.0455e-007
1.6025	6.99842e-007
1.6075	7.23881e-007
1.6125	7.75539e-007
1.6175	6.71256e-007
1.6225	5.33547e-007
1.6275	5.61533e-007
1.6325	5.92522e-007
1.6375	3.91633e-007
1.6425	4.25181e-007
1.6475	8.55756e-007
1.6525	6.69569e-007
1.6575	7.20072e-007
1.6625	5.02346e-007
1.6675	4.76442e-007
1.6725	5.33445e-007
1.6775	5.06968e-007
1.6825	6.75297e-007
1.6875	3.38351e-007
1.6925	5.40927e-007
1.6975	4.80976e-007
1.7025	6.45117e-007
1.7075	4.79935e-007
1.7125	7.29884e-007
1.7175	6.15177e-007
1.7225	6.09731e-007
1.7275	3.13647e-007
1.7325	7.46762e-007
1.7375	2.96322e-007
1.7425	4.74196e-007
1.7475	4.74332e-007
1.7525	7.72487e-007
1.7575	5.55245e-007
1.7625	4.73119e-007
1.7675	5.00469e-007
1.7725	3.62302e-007
1.7775	4.71707e-007
1.7825	6.92347e-007
1.7875	5.79338e-007
1.7925	7.66761e-007
1.7975	5.84059e-007
1.8025	2.8334e-007
1.8075	5.33202e-007
1.8125	4.67221e-007
1.8175	3.66672e-007
1.8225	4.705e-007
1.8275	3.89358e-007
1.8325	3.71908e-007
1.8375	3.64781e-007
1.8425	4.79545e-007
1.8475	4.14422e-007
1.8525	3.98289e-007
1.8575	4.15029e-007
1.8625	5.49728e-007
1.8675	3.89861e-007
1.8725	4.20203e-007
1.8775	4.45094e-007
1.8825	3.61666e-007
1.8875	4.81235e-007
1.8925	3.11254e-007
1.8975	3.36915e-007
1.9025	4.70491e-007
1.9075	4.15383e-007
1.9125	5.30012e-007
1.9175	4.71979e-007
1.9225	4.44892e-007
1.9275	3.33067e-007
1.9325	3.64368e-007
1.9375	3.36726e-007
1.9425	3.85433e-007
1.9475	3.64556e-007
1.9525	3.32708e-007
1.9575	3.6079e-007
1.9625	3.05928e-007
1.9675	3.32592e-007
1.9725	4.69592e-007
1.9775	3.15806e-007
1.9825	2.79868e-007
1.9875	3.89508e-007
1.9925	3.62994e-007
1.9975	3.56997e-007
2.0025	2.79542e-007
2.0075	1.4267e-007
2.0125	3.86406e-007
2.0175	3.35895e-007
2.0225	5.01542e-007
2.0275	3.87059e-007
2.0325	4.39121e-007
2.0375	3.05482e-007
2.0425	2.78404e-007
2.0475	3.08085e-007
2.0525	3.3336e-007
2.0575	2.7905e-007
2.0625	3.04002e-007
2.0675	2.52159e-007
2.0725	3.9093e-007
2.0775	4.1599e-007
2.0825	4.15348e-007
2.0875	3.2933e-007
2.0925	4.09817e-007
2.0975	2.51646e-007
2.1025	2.78806e-007
2.1075	2.7232e-007
2.1125	2.21695e-007
2.1175	4.11166e-007
2.1225	1.95881e-007
2.1275	3.86447e-007
2.1325	3.30597e-007
2.1375	1.17086e-007
2.1425	3.03029e-007
2.1475	3.02848e-007
2.1525	3.17879e-007
2.1575	1.68405e-007
2.1625	3.01857e-007
2.1675	2.22445e-007
2.1725	2.25141e-007
2.1775	2.48265e-007
2.1825	1.94402e-007
2.1875	2.73527e-007
2.1925	2.75706e-007
2.1975	2.76599e-007
2.2025	2.75414e-007
2.2075	2.75039e-007
2.2125	2.77691e-007
2.2175	3.05417e-007
2.2225	1.14743e-007
2.2275	8.67756e-008
2.2325	2.23343e-007
2.2375	2.50881e-007
2.2425	1.94787e-007
2.2475	2.57129e-007
2.2525	2.46897e-007
2.2575	1.40113e-007
2.2625	2.76422e-007
2.2675	2.75282e-007
2.2725	1.41406e-007
2.2775	1.11344e-007
2.2825	1.11121e-007
2.2875	3.03537e-007
2.2925	1.41888e-007
2.2975	2.25148e-007
2.3025	1.37486e-007
2.3075	1.1139e-007
2.3125	1.19013e-007
2.3175	1.93346e-007
2.3225	1.41748e-007
2.3275	3.27567e-007
2.3325	2.21733e-007
2.3375	1.41786e-007
2.3425	1.68787e-007
2.3475	3.04967e-008
2.3525	1.12361e-007
2.3575	2.77229e-007
2.3625	1.39477e-007
2.3675	1.38511e-007
2.3725	8.53536e-008
2.3775	1.39266e-007
2.3825	1.68805e-007
2.3875	8.48685e-008
2.3925	1.64762e-007
2.3975	1.94667e-007
2.4025	1.39973e-007
2.4075	3.13306e-008
2.4125	1.10721e-007
2.4175	1.17406e-007
2.4225	1.92032e-007
2.4275	1.13159e-007
2.4325	1.39825e-007
2.4375	8.37053e-008
2.4425	2.46492e-007
2.4475	1.65968e-007
2.4525	2.95132e-008
2.4575	1.15272e-007
2.4625	1.64146e-007
2.4675	1.68119e-007
2.4725	1.40843e-007
2.4775	1.11239e-007
2.4825	1.40342e-007
2.4875	1.4474e-007
2.4925	8.63341e-008
2.4975	1.11246e-007
2.5025	5.81313e-008
2.5075	8.57899e-008
2.5125	1.12441e-007
2.5175	2.21028e-007
2.5225	1.39058e-007
2.5275	2.19997e-007
2.5325	1.40058e-007
2.5375	5.79429e-008
2.5425	8.55221e-008
2.5475	1.15087e-007
2.5525	1.39361e-007
2.5575	1.3753e-007
2.5625	1.13069e-007
2.5675	5.72111e-008
2.5725	1.39094e-007
2.5775	1.13634e-007
2.5825	1.09531e-007
2.5875	1.10153e-007
2.5925	1.10051e-007
2.5975	1.67822e-007
2.6025	8.50734e-008
2.6075	5.78443e-008
2.6125	3.09653e-008
2.6175	5.71636e-008
2.6225	5.71428e-008
2.6275	1.36629e-007
2.6325	1.12206e-007
2.6375	2.46857e-007
2.6425	5.52536e-008
2.6475	1.66029e-007
2.6525	1.11991e-007
2.6575	1.10017e-007
2.6625	8.49988e-008
2.6675	5.74433e-008
2.6725	8.70544e-008
2.6775	1.11731e-007
2.6825	1.13038e-007
2.6875	8.26194e-008
2.6925	1.14283e-007
2.6975	2.20234e-007
2.7025	2.93831e-008
2.7075	1.1043e-007
2.7125	5.71814e-008
2.7175	8.33955e-008
2.7225	1.89731e-007
2.7275	8.18542e-008
2.7325	5.64309e-008
2.7375	3.03704e-008
2.7425	9.00364e-008
2.7475	2.82376e-008
2.7525	1.37815e-007
2.7575	5.60972e-008
2.7625	3.11775e-008
2.7675	8.40371e-008
2.7725	3.05062e-008
2.7775	5.67956e-008
2.7825	1.10288e-007
2.7875	5.67895e-008
2.7925	8.44234e-008
2.7975	5.63246e-008
2.8025	2.83235e-009
2.8075	1.37614e-007
2.8125	8.35066e-008
2.8175	8.60213e-008
2.8225	2.80319e-008
2.8275	5.99347e-008
2.8325	2.83327e-008
2.8375	3.60676e-009
2.8425	1.09806e-007
2.8475	8.33949e-008
2.8525	1.09907e-007
2.8575	2.68568e-009
2.8625	5.72667e-008
2.8675	3.00422e-008
2.8725	5.5339e-008
2.8775	5.797e-008
2.8825	5.73319e-008
2.8875	8.2486e-008
2.8925	3.09144e-008
2.8975	5.73064e-008
2.9025	3.01428e-008
2.9075	1.37393e-007
2.9125	8.37501e-008
2.9175	8.40232e-008
2.9225	6.02377e-008
2.9275	6.00615e-008
2.9325	6.92452e-009
2.9375	6.31576e-008
2.9425	6.94961e-008
2.9475	7.50683e-008
2.9525	8.01492e-008
2.9575	1.18726e-007
2.9625	1.09371e-007
2.9675	1.03795e-007
2.9725	1.5882e-007
2.9775	1.5324e-007
2.9825	2.39796e-007
2.9875	3.20956e-007
2.9925	4.03614e-007
2.9975	5.74057e-007
3.0025	6.90336e-007
3.0075	9.38616e-007
3.0125	1.13888e-006
3.0175	1.40043e-006
3.0225	1.67532e-006
3.0275	2.12928e-006
3.0325	2.54033e-006
3.0375	2.96571e-006
3.0425	3.37568e-006
3.0475	3.92338e-006
3.0525	4.52811e-006
3.0575	5.13144e-006
3.0625	5.68071e-006
3.0675	6.18369e-006
3.0725	6.67035e-006
3.0775	7.03721e-006
3.0825	7.46245e-006
3.0875	7.63558e-006
3.0925	7.80468e-006
3.0975	7.87036e-006
3.1025	7.81436e-006
3.1075	7.56753e-006
3.1125	7.28204e-006
3.1175	6.96439e-006
3.1225	6.4327e-006
3.1275	5.9374e-006
3.1325	5.4027e-006
3.1375	4.76922e-006
3.1425	4.26924e-006
3.1475	3.72504e-006
3.1525	3.14458e-006
3.1575	2.62149e-006
3.1625	2.1699e-006
3.1675	1.74364e-006
3.1725	1.44722e-006
3.1775	1.12461e-006
3.1825	8.55214e-007
3.1875	7.11811e-007
3.1925	6.16929e-007
3.1975	4.13082e-007
3.2025	3.25924e-007
3.2075	2.65807e-007
3.2125	1.76126e-007
3.2175	1.2268e-007
3.2225	1.21121e-007
3.2275	7.3217e-008
3.2325	8.8934e-008
3.2375	7.91379e-008
3.2425	4.15266e-008
3.2475	3.71058e-008
3.2525	3.12282e-008
3.2575	5.83001e-008
3.2625	3.61856e-009
3.2675	5.84382e-008
3.2725	3.39424e-009
3.2775	2.90749e-009
3.2825	3.07453e-008
3.2875	3.01271e-008
3.2925	2.49472e-009
3.2975	4.27726e-009
3.3025	3.03484e-008
3.3075	2.9865e-008
3.3125	2.75482e-008
3.3175	1.76296e-009
3.3225	8.93953e-010
3.3275	5.49379e-008
3.3325	2.87709e-008
3.3375	1.10263e-007
3.3425	5.68967e-008
3.3475	2.47935e-009
3.3525	2.90569e-008
3.3575	2.81352e-008
3.3625	9.21083e-010
3.3675	3.8669e-010
3.3725	2.87586e-008
3.3775	1.62774e-009
3.3825	5.51658e-008
3.3875	2.66682e-012
3.3925	8.23137e-008
3.3975	2.1488e-009
3.4025	1.09463e-007
3.4075	1.05204e-009
3.4125	2.75771e-008
3.4175	2.74636e-008
3.4225	2.93688e-008
3.4275	1.02575e-009
3.4325	4.82265e-009
3.4375	1.59569e-009
3.4425	5.5453e-008
3.4475	5.54913e-008
3.4525	7.24651e-010
3.4575	2.75925e-008
3.4625	2.84456e-008
3.4675	1.31012e-010
3.4725	1.08354e-007
3.4775	2.83284e-009
3.4825	2.82935e-008
3.4875	1.23578e-009
3.4925	2.8672e-008
3.4975	7.86257e-010
3.5025	2.04911e-009
3.5075	2.9844e-008
3.5125	2.05051e-009
3.5175	2.88985e-008
3.5225	5.62548e-008
3.5275	3.03818e-009
3.5325	3.1202e-008
3.5375	3.94679e-009
3.5425	3.31294e-008
3.5475	5.96684e-008
3.5525	6.7738e-009
3.5575	3.56773e-008
3.5625	9.6051e-009
3.5675	1.24098e-008
3.5725	1.51027e-008
3.5775	1.58238e-008
3.5825	4.73451e-008
3.5875	4.91032e-008
3.5925	2.5897e-008
3.5975	5.81067e-008
3.6025	3.29734e-008
3.6075	3.79805e-008
3.6125	7.01757e-008
3.6175	4.66658e-008
3.6225	7.86516e-008
3.6275	5.71645e-008
3.6325	9.01052e-008
3.6375	9.39739e-008
3.6425	7.25947e-008
3.6475	7.58496e-008
3.6525	1.07741e-007
3.6575	8.27992e-008
3.6625	8.78774e-008
3.6675	1.72828e-007
3.6725	1.20003e-007
3.6775	9.3737e-008
3.6825	9.43227e-008
3.6875	9.4372e-008
3.6925	1.21245e-007
3.6975	1.18637e-007
3.7025	1.43062e-007
3.7075	8.71979e-008
3.7125	8.34933e-008
3.7175	7.98583e-008
3.7225	1.03293e-007
3.7275	6.96437e-008
3.7325	6.48016e-008
3.7375	5.95993e-008
3.7425	8.16522e-008
3.7475	5.04357e-008
3.7525	7.1708e-008
3.7575	6.724e-008
3.7625	3.49656e-008
3.7675	3.09616e-008
3.7725	2.72948e-008
3.7775	2.41393e-008
3.7825	2.04545e-008
3.7875	1.84586e-008
3.7925	4.21864e-008
3.7975	6.71269e-008
3.8025	1.0439e-008
3.8075	1.05549e-008
3.8125	6.21088e-008
3.8175	5.99621e-009
3.8225	5.8912e-009
3.8275	3.09893e-008
3.8325	3.031e-008
3.8375	3.83585e-009
3.8425	5.70417e-008
3.8475	5.59246e-008
3.8525	8.96105e-010
3.8575	7.27603e-010
3.8625	1.20265e-009
3.8675	2.80656e-008
3.8725	7.08705e-010
3.8775	2.76595e-008
3.8825	3.76675e-010
3.8875	7.56841e-010
3.8925	1.30943e-009
3.8975	2.71647e-008
3.9025	2.11081e-009
3.9075	9.41851e-010
3.9125	2.05239e-011
3.9175	3.32709e-010
3.9225	2.80931e-008
3.9275	2.84914e-011
3.9325	2.86195e-011
3.9375	1.18888e-009
3.9425	7.61868e-010
3.9475	3.26297e-010
3.9525	3.62814e-010
3.9575	2.70602e-008
3.9625	2.77975e-008
3.9675	2.70576e-008
3.9725	2.70574e-008
3.9775	5.84967e-010
3.9825	2.70574e-008
3.9875	2.95103e-008
3.9925	2.70653e-008
3.9975	1.34883e-009
***
0.0025	0.000831305
0.0075	0.000985897
0.0125	0.000589909
0.0175	0.000334927
0.0225	0.00021699
0.0275	0.000158064
0.0325	0.000126819
0.0375	0.000104149
0.0425	8.70562e-005
0.0475	7.51367e-005
0.0525	6.43422e-005
0.0575	5.55309e-005
0.0625	4.83445e-005
0.0675	4.18566e-005
0.0725	3.59051e-005
0.0775	3.10117e-005
0.0825	2.62442e-005
0.0875	2.26036e-005
0.0925	1.91752e-005
0.0975	1.62848e-005
0.1025	1.35475e-005
0.1075	1.09732e-005
0.1125	8.95216e-006
0.1175	7.46462e-006
0.1225	6.08791e-006
0.1275	5.37866e-006
0.1325	4.69672e-006
0.1375	4.52483e-006
0.1425	4.29131e-006
0.1475	4.13227e-006
0.1525	3.94776e-006
0.1575	3.7513e-006
0.1625	3.62633e-006
0.1675	3.54164e-006
0.1725	3.29963e-006
0.1775	3.18311e-006
0.1825	3.068e-006
0.1875	2.95864e-006
0.1925	2.93128e-006
0.1975	2.87015e-006
0.2025	2.61089e-006
0.2075	2.61354e-006
0.2125	2.46057e-006
0.2175	2.34151e-006
0.2225	2.36023e-006
0.2275	2.24659e-006
0.2325	2.16644e-006
0.2375	2.15897e-006
0.2425	2.04941e-006
0.2475	2.06259e-006
0.2525	1.91577e-006
0.2575	1.85636e-006
0.2625	1.79358e-006
0.2675	1.75995e-006
0.2725	1.65404e-006
0.2775	1.70906e-006
0.2825	1.61243e-006
0.2875	1.5764e-006
0.2925	1.53049e-006
0.2975	1.42994e-006
0.3025	1.46955e-006
0.3075	1.38939e-006
0.3125	1.33386e-006
0.3175	1.34337e-006
0.3225	1.24067e-006
0.3275	1.21487e-006
0.3325	1.16946e-006
0.3375	1.16716e-006
0.3425	1.09972e-006
0.3475	1.05876e-006
0.3525	1.0535e-006
0.3575	1.00965e-006
0.3625	9.36034e-007
0.3675	8.9835e-007
0.3725	8.78435e-007
0.3775	8.90321e-007
0.3825	8.39967e-007
0.3875	8.27758e-007
0.3925	7.86766e-007
0.3975	7.44097e-007
0.4025	7.49311e-007
0.4075	6.83277e-007
0.4125	6.56636e-007
0.4175	6.34934e-007
0.4225	6.21193e-007
0.4275	6.05772e-007
0.4325	5.79534e-007
0.4375	5.34653e-007
0.4425	5.42579e-007
0.4475	4.97397e-007
0.4525	5.11546e-007
0.4575	4.84105e-007
0.4625	4.72663e-007
0.4675	4.31878e-007
0.4725	4.10202e-007
0.4775	3.53972e-007
0.4825	3.60168e-007
0.4875	3.64015e-007
0.4925	3.40675e-007
0.4975	3.11617e-007
0.5025	3.23658e-007
0.5075	3.22957e-007
0.5125	2.9874e-007
0.5175	2.89866e-007
0.5225	3.16407e-007
0.5275	2.93512e-007
0.5325	3.03662e-007
0.5375	2.82411e-007
0.5425	2.81609e-007
0.5475	2.72413e-007
0.5525	2.89768e-007
0.5575	2.81449e-007
0.5625	3.07068e-007
0.5675	2.76505e-007
0.5725	2.78961e-007
0.5775	3.18781e-007
0.5825	3.01536e-007
0.5875	3.01383e-007
0.5925	2.96395e-007
0.5975	3.37088e-007
0.6025	3.14818e-007
0.6075	2.92317e-007
0.6125	2.99598e-007
0.6175	3.20121e-007
0.6225	3.07555e-007
0.6275	2.88036e-007
0.6325	2.8543e-007
0.6375	2.81575e-007
0.6425	2.98976e-007
0.6475	2.6366e-007
0.6525	2.62001e-007
0.6575	2.82132e-007
0.6625	2.97885e-007
0.6675	3.11172e-007
0.6725	2.88238e-007
0.6775	3.12405e-007
0.6825	3.32761e-007
0.6875	3.35168e-007
0.6925	3.62558e-007
0.6975	3.64796e-007
0.7025	3.79979e-007
0.7075	3.93348e-007
0.7125	3.95818e-007
0.7175	4.18791e-007
0.7225	4.46289e-007
0.7275	4.77932e-007
0.7325	4.79237e-007
0.7375	5.26766e-007
0.7425	5.53665e-007
0.7475	5.77861e-007
0.7525	6.81072e-007
0.7575	8.0136e-007
0.7625	1.1101e-006
0.7675	1.62853e-006
0.7725	2.20373e-006
0.7775	2.7114e-006
0.7825	2.88919e-006
0.7875	2.49783e-006
0.7925	1.91023e-006
0.7975	1.31831e-006
0.8025	8.41902e-007
0.8075	5.67655e-007
0.8125	4.19027e-007
0.8175	3.03232e-007
0.8225	2.8107e-007
0.8275	2.46678e-007
0.8325	2.36632e-007
0.8375	1.93886e-007
0.8425	1.62571e-007
0.8475	1.53967e-007
0.8525	1.43369e-007
0.8575	1.51632e-007
0.8625	1.41541e-007
0.8675	1.23942e-007
0.8725	1.3207e-007
0.8775	1.22676e-007
0.8825	1.08403e-007
0.8875	1.06283e-007
0.8925	9.1795e-008
0.8975	1.02877e-007
0.9025	8.31888e-008
0.9075	8.45848e-008
0.9125	8.61163e-008
0.9175	9.15773e-008
0.9225	9.1566e-008
0.9275	6.59215e-008
0.9325	8.78305e-008
0.9375	8.99062e-008
0.9425	5.51889e-008
0.9475	8.27161e-008
0.9525	7.02028e-008
0.9575	9.01149e-008
0.9625	9.02088e-008
0.9675	8.43188e-008
0.9725	8.79712e-008
0.9775	9.20836e-008
0.9825	9.7942e-008
0.9875	1.3323e-007
0.9925	2.42728e-007
0.9975	3.67237e-007
1.0025	6.25635e-007
1.0075	9.73466e-007
1.0125	1.272e-006
1.0175	1.47623e-006
1.0225	1.4302e-006
1.0275	1.19049e-006
1.0325	8.31452e-007
1.0375	5.37697e-007
1.0425	3.08196e-007
1.0475	1.65249e-007
1.0525	1.06924e-007
1.0575	8.18179e-008
1.0625	8.78023e-008
1.0675	6.81012e-008
1.0725	5.81475e-008
1.0775	6.22164e-008
1.0825	5.16307e-008
1.0875	5.07492e-008
1.0925	5.43708e-008
1.0975	4.36268e-008
1.1025	6.81904e-008
1.1075	5.68317e-008
1.1125	3.74437e-008
1.1175	2.60178e-008
1.1225	3.52836e-008
1.1275	2.47421e-008
1.1325	6.22962e-008
1.1375	4.23244e-008
1.1425	3.08236e-008
1.1475	3.92241e-008
1.1525	3.41499e-008
1.1575	3.19455e-008
1.1625	3.40461e-008
1.1675	3.64137e-008
1.1725	4.67823e-008
1.1775	4.23571e-008
1.1825	2.81436e-008
1.1875	4.63525e-008
1.1925	3.96754e-008
1.1975	3.03468e-008
1.2025	3.06053e-008
1.2075	3.42989e-008
1.2125	2.33306e-008
1.2175	3.51647e-008
1.2225	3.39072e-008
1.2275	2.51707e-008
1.2325	2.54993e-008
1.2375	3.35755e-008
1.2425	2.25962e-008
1.2475	2.69298e-008
1.2525	2.47311e-008
1.2575	3.57156e-008
1.2625	2.72271e-008
1.2675	3.32245e-008
1.2725	3.19921e-008
1.2775	2.86139e-008
1.2825	1.30915e-008
1.2875	1.95545e-008
1.2925	1.08242e-008
1.2975	3.11399e-008
1.3025	2.40365e-008
1.3075	3.49892e-008
1.3125	3.9402e-008
1.3175	1.96126e-008
1.3225	2.85301e-008
1.3275	2.82605e-008
1.3325	1.07581e-008
1.3375	1.7209e-008
1.3425	3.02464e-008
1.3475	2.11434e-008
1.3525	3.45227e-008
1.3575	2.34739e-008
1.3625	3.23315e-008
1.3675	1.46395e-008
1.3725	2.36074e-008
1.3775	2.53276e-008
1.3825	2.35647e-008
1.3875	2.80634e-008
1.3925	2.52998e-008
1.3975	1.67377e-008
1.4025	2.98717e-008
1.4075	1.63881e-008
1.4125	2.54603e-008
1.4175	2.55887e-008
1.4225	1.44679e-008
1.4275	1.85843e-008
1.4325	2.76717e-008
1.4375	1.45841e-008
1.4425	2.55409e-008
1.4475	2.32325e-008
1.4525	1.41822e-008
1.4575	1.18431e-008
1.4625	2.07445e-008
1.4675	3.20694e-008
1.4725	3.16648e-008
1.4775	1.84371e-008
1.4825	1.85449e-008
1.4875	2.94426e-008
1.4925	1.62645e-008
1.4975	2.08336e-008
1.5025	1.39086e-008
1.5075	1.87175e-008
1.5125	1.15532e-008
1.5175	2.30025e-008
1.5225	1.17096e-008
1.5275	1.38576e-008
1.5325	3.60556e-008
1.5375	1.62902e-008
1.5425	9.49463e-009
1.5475	1.17916e-008
1.5525	1.15013e-008
1.5575	1.62251e-008
1.5625	1.60562e-008
1.5675	1.84464e-008
1.5725	1.1734e-008
1.5775	2.93411e-008
1.5825	1.37752e-008
1.5875	9.33638e-009
1.5925	1.87336e-008
1.5975	2.03596e-008
1.6025	1.8174e-008
1.6075	2.2635e-008
1.6125	1.8191e-008
1.6175	2.46979e-008
1.6225	1.3861e-008
1.6275	1.60145e-008
1.6325	2.24885e-008
1.6375	1.36211e-008
1.6425	1.58741e-008
1.6475	1.80848e-008
1.6525	1.60616e-008
1.6575	1.15864e-008
1.6625	1.58727e-008
1.6675	9.3094e-009
1.6725	1.15933e-008
1.6775	1.59258e-008
1.6825	7.09209e-009
1.6875	2.0187e-008
1.6925	2.03926e-008
1.6975	2.461e-008
1.7025	9.10987e-009
1.7075	1.13974e-008
1.7125	9.13275e-009
1.7175	2.45694e-008
1.7225	2.01179e-008
1.7275	1.36348e-008
1.7325	1.14412e-008
1.7375	1.14423e-008
1.7425	2.0144e-008
1.7475	1.35673e-008
1.7525	1.1288e-008
1.7575	6.89897e-009
1.7625	1.79332e-008
1.7675	9.18038e-009
1.7725	1.37843e-008
1.7775	7.06237e-009
1.7825	1.1343e-008
1.7875	1.35433e-008
1.7925	4.64838e-009
1.7975	9.29562e-009
1.8025	9.35766e-009
1.8075	1.13676e-008
1.8125	6.93299e-009
1.8175	4.68231e-009
1.8225	9.05872e-009
1.8275	2.00957e-008
1.8325	6.81899e-009
1.8375	1.13551e-008
1.8425	1.35939e-008
1.8475	1.58018e-008
1.8525	9.49192e-009
1.8575	9.02924e-009
1.8625	1.12208e-008
1.8675	9.17276e-009
1.8725	1.12273e-008
1.8775	9.05639e-009
1.8825	6.96316e-009
1.8875	4.7991e-009
1.8925	6.86976e-009
1.8975	1.34419e-008
1.9025	1.34594e-008
1.9075	6.76027e-009
1.9125	9.06764e-009
1.9175	2.00461e-008
1.9225	1.56709e-008
1.9275	2.00913e-008
1.9325	5.08972e-010
1.9375	9.34792e-009
1.9425	6.68644e-009
1.9475	6.82175e-009
1.9525	4.59038e-009
1.9575	6.83842e-009
1.9625	1.78992e-008
1.9675	6.82658e-009
1.9725	1.34348e-008
1.9775	4.66779e-009
1.9825	4.55932e-009
1.9875	1.56274e-008
1.9925	1.33722e-008
1.9975	4.60098e-009
2.0025	9.00168e-009
2.0075	1.12176e-008
2.0125	2.43814e-009
2.0175	9.0224e-009
2.0225	4.62219e-009
2.0275	6.81472e-009
2.0325	1.3384e-008
2.0375	1.12707e-008
2.0425	1.34034e-008
2.0475	6.76742e-009
2.0525	2.4446e-009
2.0575	6.82244e-009
2.0625	1.56691e-008
2.0675	9.02343e-009
2.0725	1.56856e-008
2.0775	1.33964e-008
2.0825	1.3429e-008
2.0875	1.11551e-008
2.0925	1.78363e-008
2.0975	6.84336e-009
2.1025	1.34004e-008
2.1075	9.06004e-009
2.1125	6.77663e-009
2.1175	4.60798e-009
2.1225	8.42815e-011
2.1275	1.11862e-008
2.1325	1.33253e-008
2.1375	6.77455e-009
2.1425	1.99534e-008
2.1475	1.11685e-008
2.1525	6.79531e-009
2.1575	6.76497e-009
2.1625	4.58642e-009
2.1675	6.73773e-009
2.1725	4.53289e-009
2.1775	1.34112e-008
2.1825	8.99377e-009
2.1875	1.1224e-008
2.1925	1.12077e-008
2.1975	4.55126e-009
2.2025	6.72499e-009
2.2075	6.73633e-009
2.2125	4.62429e-009
2.2175	8.90728e-009
2.2225	6.70271e-009
2.2275	4.55824e-009
2.2325	6.73977e-009
2.2375	6.66945e-009
2.2425	2.29113e-009
2.2475	6.84903e-009
2.2525	2.37568e-009
2.2575	2.34712e-009
2.2625	1.12402e-008
2.2675	1.12123e-008
2.2725	8.87218e-009
2.2775	4.47997e-009
2.2825	6.74259e-009
2.2875	6.71412e-009
2.2925	6.75841e-009
2.2975	7.03283e-009
2.3025	6.77299e-009
2.3075	8.89402e-009
2.3125	6.76489e-009
2.3175	6.74495e-009
2.3225	2.31823e-009
2.3275	4.62055e-009
2.3325	4.52646e-009
2.3375	4.50425e-009
2.3425	1.3403e-008
2.3475	6.00621e-011
2.3525	6.7983e-009
2.3575	2.61469e-009
2.3625	5.90527e-011
2.3675	4.45162e-009
2.3725	7.52845e-011
2.3775	4.53495e-009
2.3825	6.70698e-009
2.3875	8.92165e-009
2.3925	6.66373e-009
2.3975	5.00178e-011
2.4025	1.11532e-008
2.4075	6.88606e-009
2.4125	4.55111e-009
2.4175	4.43987e-009
2.4225	4.49677e-009
2.4275	2.32234e-009
2.4325	1.12452e-008
2.4375	6.70999e-009
2.4425	2.30719e-009
2.4475	6.71744e-009
2.4525	2.24666e-009
2.4575	6.75353e-009
2.4625	2.3285e-009
2.4675	4.48902e-009
2.4725	6.7463e-009
2.4775	2.31226e-009
2.4825	6.73294e-009
2.4875	6.69203e-009
2.4925	6.68421e-009
2.4975	4.56422e-009
2.5025	4.50591e-009
2.5075	6.71456e-009
2.5125	1.42852e-010
2.5175	6.68493e-009
2.5225	1.11921e-008
2.5275	6.72314e-009
2.5325	6.81264e-011
2.5375	6.65234e-009
2.5425	6.20349e-011
2.5475	6.69052e-009
2.5525	4.51937e-009
2.5575	2.2501e-009
2.5625	8.96968e-009
2.5675	1.04035e-010
2.5725	4.47522e-009
2.5775	2.27635e-009
2.5825	2.2682e-009
2.5875	8.93313e-009
2.5925	2.25499e-009
2.5975	2.31579e-009
2.6025	2.25638e-009
2.6075	6.38239e-011
2.6125	4.52875e-009
2.6175	2.24354e-009
2.6225	2.24157e-009
2.6275	4.48052e-009
2.6325	3.90732e-011
2.6375	8.96615e-009
2.6425	4.43871e-009
2.6475	4.6215e-009
2.6525	4.44122e-009
2.6575	6.6973e-009
2.6625	6.23204e-011
2.6675	4.45139e-009
2.6725	2.24655e-009
2.6775	2.2493e-009
2.6825	8.89396e-009
2.6875	2.25087e-009
2.6925	4.514e-009
2.6975	2.267e-009
2.7025	2.31154e-009
2.7075	2.2679e-009
2.7125	6.73798e-009
2.7175	2.26173e-009
2.7225	2.27403e-009
2.7275	2.30102e-009
2.7325	6.68429e-009
2.7375	8.33525e-011
2.7425	6.02883e-011
2.7475	2.88918e-011
2.7525	6.68414e-009
2.7575	4.46394e-009
2.7625	2.30715e-009
2.7675	6.67607e-009
2.7725	2.30644e-009
2.7775	2.29482e-009
2.7825	4.5028e-009
2.7875	1.10033e-010
2.7925	2.33012e-009
2.7975	6.15153e-011
2.8025	2.25309e-009
2.8075	2.27478e-009
2.8125	8.8909e-009
2.8175	4.49983e-009
2.8225	4.44331e-009
2.8275	6.67051e-009
2.8325	2.26483e-009
2.8375	4.48346e-009
2.8425	2.25749e-009
2.8475	6.91082e-011
2.8525	9.54971e-011
2.8575	4.5039e-009
2.8625	3.78931e-011
2.8675	6.52385e-011
2.8725	3.96128e-011
2.8775	2.23441e-009
2.8825	8.93974e-011
2.8875	4.51085e-009
2.8925	1.31884e-010
2.8975	2.37141e-009
2.9025	3.14852e-010
2.9075	3.00243e-010
2.9125	2.6238e-009
2.9175	2.66143e-009
2.9225	5.29581e-010
2.9275	5.21766e-009
2.9325	3.32743e-009
2.9375	3.6317e-009
2.9425	4.02636e-009
2.9475	4.94393e-009
2.9525	8.26026e-009
2.9575	5.18004e-009
2.9625	5.87774e-009
2.9675	8.78631e-009
2.9725	1.58762e-008
2.9775	1.99587e-008
2.9825	1.9142e-008
2.9875	3.10986e-008
2.9925	3.71813e-008
2.9975	4.13055e-008
3.0025	5.28892e-008
3.0075	6.20392e-008
3.0125	8.22694e-008
3.0175	9.65098e-008
3.0225	1.13423e-007
3.0275	1.34228e-007
3.0325	1.61478e-007
3.0375	1.88942e-007
3.0425	2.13787e-007
3.0475	2.43273e-007
3.0525	2.67794e-007
3.0575	3.09163e-007
3.0625	3.29526e-007
3.0675	3.56055e-007
3.0725	3.83555e-007
3.0775	4.04209e-007
3.0825	4.24149e-007
3.0875	4.39438e-007
3.0925	4.41114e-007
3.0975	4.52342e-007
3.1025	4.41868e-007
3.1075	4.39605e-007
3.1125	4.24233e-007
3.1175	4.08506e-007
3.1225	3.79596e-007
3.1275	3.54667e-007
3.1325	3.27478e-007
3.1375	2.95024e-007
3.1425	2.6729e-007
3.1475	2.39647e-007
3.1525	2.07083e-007
3.1575	1.77819e-007
3.1625	1.5101e-007
3.1675	1.24676e-007
3.1725	1.05698e-007
3.1775	9.05367e-008
3.1825	6.92214e-008
3.1875	5.58984e-008
3.1925	4.35553e-008
3.1975	3.36729e-008
3.2025	2.73856e-008
3.2075	2.14331e-008
3.2125	1.47916e-008
3.2175	1.27358e-008
3.2225	7.48744e-009
3.2275	9.92016e-009
3.2325	3.48309e-009
3.2375	2.69488e-009
3.2425	2.08866e-009
3.2475	3.30199e-009
3.2525	5.22828e-009
3.2575	2.88321e-009
3.2625	4.87949e-010
3.2675	3.1261e-010
3.2725	2.43867e-009
3.2775	2.34401e-009
3.2825	2.34763e-009
3.2875	9.91189e-011
3.2925	6.39441e-011
3.2975	5.99536e-011
3.3025	2.25034e-009
3.3075	3.70684e-011
3.3125	6.65802e-009
3.3175	3.53922e-011
3.3225	1.39319e-011
3.3275	2.71322e-011
3.3325	3.13915e-011
3.3375	4.22083e-013
3.3425	2.2568e-009
3.3475	3.01826e-011
3.3525	2.31243e-009
3.3575	5.19078e-011
3.3625	2.22435e-009
3.3675	2.26148e-009
3.3725	3.08096e-011
3.3775	4.12734e-011
3.3825	8.879e-012
3.3875	4.30927e-011
3.3925	4.07856e-011
3.3975	2.5653e-011
3.4025	2.72676e-011
3.4075	2.23831e-009
3.4125	2.24443e-009
3.4175	2.21193e-009
3.4225	1.76059e-012
3.4275	3.98898e-011
3.4325	1.2993e-011
3.4375	2.28476e-009
3.4425	3.18958e-011
3.4475	5.86173e-011
3.4525	7.5909e-012
3.4575	2.23609e-009
3.4625	1.86394e-011
3.4675	2.23493e-009
3.4725	5.5403e-011
3.4775	5.86172e-011
3.4825	2.24928e-009
3.4875	8.609e-011
3.4925	6.7361e-011
3.4975	2.30576e-009
3.5025	8.6334e-011
3.5075	1.63671e-010
3.5125	2.36774e-009
3.5175	1.71779e-010
3.5225	1.77973e-010
3.5275	2.01708e-010
3.5325	2.80455e-010
3.5375	3.36348e-010
3.5425	2.58507e-009
3.5475	4.78161e-010
3.5525	2.77927e-009
3.5575	6.53198e-010
3.5625	2.97771e-009
3.5675	9.13523e-010
3.5725	3.29333e-009
3.5775	1.26589e-009
3.5825	1.47128e-009
3.5875	6.08095e-009
3.5925	1.85048e-009
3.5975	2.12405e-009
3.6025	2.33434e-009
3.6075	2.65273e-009
3.6125	5.18983e-009
3.6175	3.21421e-009
3.6225	3.52737e-009
3.6275	6.06701e-009
3.6325	4.11405e-009
3.6375	4.42078e-009
3.6425	4.70909e-009
3.6475	4.99018e-009
3.6525	5.30661e-009
3.6575	5.5224e-009
3.6625	5.72064e-009
3.6675	1.034e-008
3.6725	5.98725e-009
3.6775	6.32747e-009
3.6825	8.39552e-009
3.6875	8.47616e-009
3.6925	6.20012e-009
3.6975	1.05592e-008
3.7025	6.01918e-009
3.7075	5.77642e-009
3.7125	5.67014e-009
3.7175	5.44037e-009
3.7225	5.11054e-009
3.7275	4.83618e-009
3.7325	7.06519e-009
3.7375	4.27248e-009
3.7425	3.87311e-009
3.7475	3.58358e-009
3.7525	3.32197e-009
3.7575	2.91831e-009
3.7625	2.70912e-009
3.7675	2.45264e-009
3.7725	2.15876e-009
3.7775	1.86972e-009
3.7825	1.63047e-009
3.7875	1.43768e-009
3.7925	1.20851e-009
3.7975	1.01383e-009
3.8025	3.06335e-009
3.8075	2.96677e-009
3.8125	6.02132e-010
3.8175	5.13511e-010
3.8225	4.25839e-010
3.8275	3.2687e-010
3.8325	3.68169e-010
3.8375	2.56665e-010
3.8425	2.39175e-009
3.8475	1.82346e-010
3.8525	1.16344e-010
3.8575	9.41035e-011
3.8625	1.19631e-010
3.8675	2.27007e-009
3.8725	3.86917e-011
3.8775	6.26825e-011
3.8825	3.92756e-011
3.8875	6.48395e-011
3.8925	3.69333e-011
3.8975	5.02352e-011
3.9025	1.80676e-011
3.9075	3.60141e-011
3.9125	3.17825e-011
3.9175	1.91129e-011
3.9225	1.12678e-011
3.9275	2.23429e-009
3.9325	1.23324e-011
3.9375	2.21518e-011
3.9425	1.68861e-011
3.9475	8.98423e-012
3.9525	3.42626e-011
3.9575	8.36524e-013
3.9625	1.71125e-011
3.9675	1.16011e-011
3.9725	1.6722e-012
3.9775	4.14555e-013
3.9825	1.05801e-011
3.9875	1.01408e-012
3.9925	8.33205e-013
3.9975	4.42191e-009
***
0.0025	2.34859e-005
0.0075	3.11382e-005
0.0125	2.13435e-005
0.0175	1.29622e-005
0.0225	8.10533e-006
0.0275	5.72057e-006
0.0325	4.43325e-006
0.0375	3.59329e-006
0.0425	3.00482e-006
0.0475	2.5732e-006
0.0525	2.17652e-006
0.0575	1.89694e-006
0.0625	1.63261e-006
0.0675	1.42863e-006
0.0725	1.23051e-006
0.0775	1.06332e-006
0.0825	9.12431e-007
0.0875	7.85737e-007
0.0925	6.65078e-007
0.0975	5.49505e-007
0.1025	4.64527e-007
0.1075	3.82435e-007
0.1125	3.21494e-007
0.1175	2.58724e-007
0.1225	2.17985e-007
0.1275	1.92467e-007
0.1325	1.72496e-007
0.1375	1.59719e-007
0.1425	1.52569e-007
0.1475	1.45691e-007
0.1525	1.39122e-007
0.1575	1.34157e-007
0.1625	1.29011e-007
0.1675	1.25904e-007
0.1725	1.2003e-007
0.1775	1.13014e-007
0.1825	1.10013e-007
0.1875	1.06768e-007
0.1925	1.04241e-007
0.1975	9.92729e-008
0.2025	9.90944e-008
0.2075	9.36699e-008
0.2125	9.08527e-008
0.2175	8.65149e-008
0.2225	8.2726e-008
0.2275	8.34427e-008
0.2325	7.94516e-008
0.2375	7.64967e-008
0.2425	7.19884e-008
0.2475	7.09553e-008
0.2525	6.95887e-008
0.2575	6.67837e-008
0.2625	6.48818e-008
0.2675	6.41095e-008
0.2725	6.09171e-008
0.2775	5.88007e-008
0.2825	5.77005e-008
0.2875	5.67302e-008
0.2925	5.60618e-008
0.2975	5.28587e-008
0.3025	5.08153e-008
0.3075	4.99507e-008
0.3125	4.85794e-008
0.3175	4.83568e-008
0.3225	4.42829e-008
0.3275	4.49605e-008
0.3325	4.2589e-008
0.3375	4.20493e-008
0.3425	4.00554e-008
0.3475	4.04399e-008
0.3525	3.7187e-008
0.3575	3.72309e-008
0.3625	3.56234e-008
0.3675	3.3956e-008
0.3725	3.22129e-008
0.3775	3.23497e-008
0.3825	3.13195e-008
0.3875	2.93474e-008
0.3925	2.96895e-008
0.3975	2.79146e-008
0.4025	2.65902e-008
0.4075	2.6605e-008
0.4125	2.65121e-008
0.4175	2.38998e-008
0.4225	2.36939e-008
0.4275	2.2734e-008
0.4325	2.22083e-008
0.4375	2.13549e-008
0.4425	1.94192e-008
0.4475	1.88315e-008
0.4525	1.7992e-008
0.4575	1.7188e-008
0.4625	1.61454e-008
0.4675	1.54055e-008
0.4725	1.5169e-008
0.4775	1.45583e-008
0.4825	1.35751e-008
0.4875	1.33821e-008
0.4925	1.35157e-008
0.4975	1.2893e-008
0.5025	1.15718e-008
0.5075	1.19726e-008
0.5125	1.18252e-008
0.5175	1.14887e-008
0.5225	1.08033e-008
0.5275	1.0533e-008
0.5325	1.048e-008
0.5375	1.02317e-008
0.5425	1.05844e-008
0.5475	1.05605e-008
0.5525	1.049e-008
0.5575	1.04905e-008
0.5625	1.07949e-008
0.5675	1.10449e-008
0.5725	1.08811e-008
0.5775	1.13275e-008
0.5825	1.12711e-008
0.5875	1.15148e-008
0.5925	1.16373e-008
0.5975	1.18094e-008
0.6025	1.16203e-008
0.6075	1.17704e-008
0.6125	1.18973e-008
0.6175	1.19099e-008
0.6225	1.18766e-008
0.6275	1.17328e-008
0.6325	1.14054e-008
0.6375	1.10002e-008
0.6425	1.08188e-008
0.6475	1.07674e-008
0.6525	1.11952e-008
0.6575	1.13034e-008
0.6625	1.17029e-008
0.6675	1.22512e-008
0.6725	1.2641e-008
0.6775	1.26773e-008
0.6825	1.30891e-008
0.6875	1.36225e-008
0.6925	1.43992e-008
0.6975	1.50623e-008
0.7025	1.65629e-008
0.7075	1.71615e-008
0.7125	1.78223e-008
0.7175	1.86879e-008
0.7225	1.94214e-008
0.7275	2.03473e-008
0.7325	2.09932e-008
0.7375	2.22358e-008
0.7425	2.38613e-008
0.7475	2.62311e-008
0.7525	3.12181e-008
0.7575	3.97777e-008
0.7625	5.31346e-008
0.7675	7.34269e-008
0.7725	9.60151e-008
0.7775	1.13728e-007
0.7825	1.17462e-007
0.7875	1.07846e-007
0.7925	8.66789e-008
0.7975	6.07716e-008
0.8025	4.15153e-008
0.8075	2.75973e-008
0.8125	1.937e-008
0.8175	1.45063e-008
0.8225	1.15776e-008
0.8275	1.01144e-008
0.8325	8.72231e-009
0.8375	7.62e-009
0.8425	6.97089e-009
0.8475	6.26721e-009
0.8525	5.50559e-009
0.8575	5.07974e-009
0.8625	4.82636e-009
0.8675	4.46249e-009
0.8725	4.14133e-009
0.8775	3.7624e-009
0.8825	3.47061e-009
0.8875	3.33079e-009
0.8925	3.12448e-009
0.8975	2.9897e-009
0.9025	3.05294e-009
0.9075	3.01033e-009
0.9125	2.91394e-009
0.9175	2.80636e-009
0.9225	2.68165e-009
0.9275	2.58554e-009
0.9325	2.52017e-009
0.9375	2.41693e-009
0.9425	2.40536e-009
0.9475	2.38845e-009
0.9525	2.13088e-009
0.9575	2.18742e-009
0.9625	2.24392e-009
0.9675	2.3987e-009
0.9725	2.80483e-009
0.9775	3.32595e-009
0.9825	4.82793e-009
0.9875	7.52033e-009
0.9925	1.21867e-008
0.9975	1.97417e-008
1.0025	2.98268e-008
1.0075	4.09999e-008
1.0125	5.07281e-008
1.0175	5.61279e-008
1.0225	5.4227e-008
1.0275	4.7311e-008
1.0325	3.65394e-008
1.0375	2.53396e-008
1.0425	1.60791e-008
1.0475	9.74686e-009
1.0525	5.26115e-009
1.0575	3.23228e-009
1.0625	2.06297e-009
1.0675	1.58412e-009
1.0725	1.37185e-009
1.0775	1.77014e-009
1.0825	1.65171e-009
1.0875	1.5881e-009
1.0925	1.5564e-009
1.0975	1.5035e-009
1.1025	1.19868e-009
1.1075	1.17694e-009
1.1125	1.12998e-009
1.1175	1.09224e-009
1.1225	1.09756e-009
1.1275	1.15288e-009
1.1325	1.1501e-009
1.1375	1.10672e-009
1.1425	1.11677e-009
1.1475	1.08432e-009
1.1525	8.36058e-010
1.1575	8.22031e-010
1.1625	7.97222e-010
1.1675	8.01843e-010
1.1725	7.9264e-010
1.1775	8.50948e-010
1.1825	8.57947e-010
1.1875	8.56322e-010
1.1925	8.29975e-010
1.1975	8.41341e-010
1.2025	8.69999e-010
1.2075	8.71461e-010
1.2125	8.70671e-010
1.2175	8.44416e-010
1.2225	8.35709e-010
1.2275	5.0663e-010
1.2325	4.93739e-010
1.2375	4.97824e-010
1.2425	5.0264e-010
1.2475	4.9234e-010
1.2525	6.2304e-010
1.2575	6.04544e-010
1.2625	6.04946e-010
1.2675	6.16907e-010
1.2725	6.11124e-010
1.2775	5.60215e-010
1.2825	5.56249e-010
1.2875	5.5993e-010
1.2925	5.59521e-010
1.2975	5.55086e-010
1.3025	5.38644e-010
1.3075	5.49214e-010
1.3125	5.5039e-010
1.3175	5.46174e-010
1.3225	5.413e-010
1.3275	4.94661e-010
1.3325	4.82902e-010
1.3375	4.87701e-010
1.3425	5.09265e-010
1.3475	4.94776e-010
1.3525	6.14547e-010
1.3575	6.14305e-010
1.3625	6.16414e-010
1.3675	6.16884e-010
1.3725	6.0608e-010
1.3775	5.15824e-010
1.3825	5.31327e-010
1.3875	5.29808e-010
1.3925	5.1982e-010
1.3975	5.23093e-010
1.4025	6.43055e-010
1.4075	6.47708e-010
1.4125	6.46227e-010
1.4175	6.40002e-010
1.4225	6.39938e-010
1.4275	4.26645e-010
1.4325	4.19542e-010
1.4375	4.24519e-010
1.4425	4.2076e-010
1.4475	4.18769e-010
1.4525	5.10124e-010
1.4575	5.11486e-010
1.4625	5.15099e-010
1.4675	5.04765e-010
1.4725	4.99579e-010
1.4775	3.79103e-010
1.4825	3.65729e-010
1.4875	3.73745e-010
1.4925	3.76338e-010
1.4975	3.71583e-010
1.5025	3.23858e-010
1.5075	3.23641e-010
1.5125	3.19527e-010
1.5175	3.33061e-010
1.5225	3.20088e-010
1.5275	5.33169e-010
1.5325	5.46706e-010
1.5375	5.44424e-010
1.5425	5.35094e-010
1.5475	5.36645e-010
1.5525	6.2202e-010
1.5575	6.28399e-010
1.5625	6.2224e-010
1.5675	6.29108e-010
1.5725	6.26084e-010
1.5775	5.32137e-010
1.5825	5.34147e-010
1.5875	5.30526e-010
1.5925	5.32813e-010
1.5975	5.42535e-010
1.6025	3.18864e-010
1.6075	3.16476e-010
1.6125	3.17636e-010
1.6175	3.15068e-010
1.6225	3.15375e-010
1.6275	3.16727e-010
1.6325	3.18846e-010
1.6375	3.11729e-010
1.6425	3.13097e-010
1.6475	3.15207e-010
1.6525	4.42993e-010
1.6575	4.45624e-010
1.6625	4.46051e-010
1.6675	4.40471e-010
1.6725	4.45298e-010
1.6775	4.01269e-010
1.6825	4.05534e-010
1.6875	3.98913e-010
1.6925	3.97859e-010
1.6975	4.01411e-010
1.7025	3.55652e-010
1.7075	3.58057e-010
1.7125	3.53098e-010
1.7175	3.58923e-010
1.7225	3.54692e-010
1.7275	3.94492e-010
1.7325	3.99043e-010
1.7375	3.99599e-010
1.7425	3.95814e-010
1.7475	3.97897e-010
1.7525	3.09191e-010
1.7575	3.13149e-010
1.7625	3.09108e-010
1.7675	3.08869e-010
1.7725	3.11794e-010
1.7775	1.39207e-010
1.7825	1.37397e-010
1.7875	1.4555e-010
1.7925	1.3506e-010
1.7975	1.35595e-010
1.8025	3.9376e-010
1.8075	3.94095e-010
1.8125	3.94286e-010
1.8175	3.94024e-010
1.8225	3.95163e-010
1.8275	3.52319e-010
1.8325	3.52204e-010
1.8375	3.52223e-010
1.8425	3.49573e-010
1.8475	3.54543e-010
1.8525	3.05979e-010
1.8575	3.07609e-010
1.8625	3.05133e-010
1.8675	3.08745e-010
1.8725	3.10537e-010
1.8775	4.40188e-010
1.8825	4.37883e-010
1.8875	4.3753e-010
1.8925	4.36123e-010
1.8975	4.35299e-010
1.9025	2.6839e-010
1.9075	2.62756e-010
1.9125	2.63559e-010
1.9175	2.63184e-010
1.9225	2.68794e-010
1.9275	3.16345e-010
1.9325	3.0755e-010
1.9375	3.06211e-010
1.9425	3.07308e-010
1.9475	3.14722e-010
1.9525	5.666e-010
1.9575	5.63325e-010
1.9625	5.62436e-010
1.9675	5.6533e-010
1.9725	5.64544e-010
1.9775	2.18458e-010
1.9825	2.20185e-010
1.9875	2.22236e-010
1.9925	2.19623e-010
1.9975	2.20205e-010
2.0025	2.21613e-010
2.0075	2.20333e-010
2.0125	2.16582e-010
2.0175	2.22221e-010
2.0225	2.21678e-010
2.0275	1.31293e-010
2.0325	1.3386e-010
2.0375	1.34116e-010
2.0425	1.3028e-010
2.0475	1.34382e-010
2.0525	2.63403e-010
2.0575	2.60948e-010
2.0625	2.61799e-010
2.0675	2.62541e-010
2.0725	2.61091e-010
2.0775	3.0641e-010
2.0825	3.0484e-010
2.0875	3.03219e-010
2.0925	3.04406e-010
2.0975	3.04894e-010
2.1025	9.20991e-011
2.1075	8.8679e-011
2.1125	9.05688e-011
2.1175	8.96083e-011
2.1225	9.12136e-011
2.1275	2.2013e-010
2.1325	2.18461e-010
2.1375	2.18043e-010
2.1425	2.17598e-010
2.1475	2.1968e-010
2.1525	3.90719e-010
2.1575	3.91963e-010
2.1625	3.91068e-010
2.1675	3.89696e-010
2.1725	3.91877e-010
2.1775	1.34249e-010
2.1825	1.33717e-010
2.1875	1.3853e-010
2.1925	1.30377e-010
2.1975	1.33775e-010
2.2025	2.62903e-010
2.2075	2.60863e-010
2.2125	2.61037e-010
2.2175	2.63432e-010
2.2225	2.62267e-010
2.2275	9.03505e-011
2.2325	9.02474e-011
2.2375	8.87303e-011
2.2425	8.93799e-011
2.2475	8.8235e-011
2.2525	4.47131e-011
2.2575	4.64903e-011
2.2625	4.41097e-011
2.2675	4.48282e-011
2.2725	4.4832e-011
2.2775	3.05355e-010
2.2825	3.04985e-010
2.2875	3.02744e-010
2.2925	3.12671e-010
2.2975	3.04199e-010
2.3025	4.31202e-010
2.3075	4.34228e-010
2.3125	4.32203e-010
2.3175	4.33957e-010
2.3225	4.32008e-010
2.3275	2.1833e-010
2.3325	2.16934e-010
2.3375	2.18213e-010
2.3425	2.17999e-010
2.3475	2.19227e-010
2.3525	8.9112e-011
2.3575	8.93456e-011
2.3625	8.87469e-011
2.3675	8.75106e-011
2.3725	8.72379e-011
2.3775	4.38356e-011
2.3825	4.62726e-011
2.3875	4.552e-011
2.3925	4.75826e-011
2.3975	4.39176e-011
2.4025	1.7325e-010
2.4075	1.73676e-010
2.4125	1.74411e-010
2.4175	1.72755e-010
2.4225	1.75866e-010
2.4275	2.16895e-010
2.4325	2.17874e-010
2.4375	2.16466e-010
2.4425	2.15791e-010
2.4475	2.16823e-010
2.4525	1.43518e-012
2.4575	2.82037e-012
2.4625	1.36113e-012
2.4675	2.17561e-012
2.4725	4.13338e-012
2.4775	3.03082e-010
2.4825	3.03978e-010
2.4875	3.04119e-010
2.4925	3.01736e-010
2.4975	3.0231e-010
2.5025	9.27665e-011
2.5075	9.02028e-011
2.5125	8.75003e-011
2.5175	8.80138e-011
2.5225	8.7643e-011
2.5275	8.95711e-011
2.5325	8.80454e-011
2.5375	8.75647e-011
2.5425	8.81379e-011
2.5475	8.70588e-011
2.5525	1.73939e-010
2.5575	1.72966e-010
2.5625	1.72163e-010
2.5675	1.73961e-010
2.5725	1.73003e-010
2.5775	1.73221e-010
2.5825	1.7359e-010
2.5875	1.73998e-010
2.5925	1.74448e-010
2.5975	1.73976e-010
2.6025	4.45815e-011
2.6075	4.52239e-011
2.6125	4.56106e-011
2.6175	4.62602e-011
2.6225	4.55015e-011
2.6275	1.31406e-010
2.6325	1.30883e-010
2.6375	1.30061e-010
2.6425	1.29359e-010
2.6475	1.31107e-010
2.6525	1.31241e-010
2.6575	1.30843e-010
2.6625	1.30623e-010
2.6675	1.32885e-010
2.6725	1.30008e-010
2.6775	8.75839e-011
2.6825	8.98221e-011
2.6875	8.82953e-011
2.6925	8.88968e-011
2.6975	8.75829e-011
2.7025	4.49537e-011
2.7075	4.50488e-011
2.7125	4.44743e-011
2.7175	4.38636e-011
2.7225	4.34309e-011
2.7275	8.93468e-011
2.7325	8.85005e-011
2.7375	8.85289e-011
2.7425	8.78003e-011
2.7475	8.72373e-011
2.7525	1.30552e-010
2.7575	1.31355e-010
2.7625	1.29122e-010
2.7675	1.31541e-010
2.7725	1.31346e-010
2.7775	1.73245e-010
2.7825	1.75478e-010
2.7875	1.74475e-010
2.7925	1.74989e-010
2.7975	1.74641e-010
2.8025	1.59714e-012
2.8075	2.32827e-012
2.8125	1.30373e-012
2.8175	1.48653e-012
2.8225	4.01609e-012
2.8275	1.30275e-010
2.8325	1.30865e-010
2.8375	1.31417e-010
2.8425	1.31756e-010
2.8475	1.32447e-010
2.8525	2.9184e-012
2.8575	1.97214e-012
2.8625	2.95287e-012
2.8675	1.8004e-012
2.8725	2.01195e-012
2.8775	4.93338e-011
2.8825	5.39027e-011
2.8875	5.01089e-011
2.8925	5.8932e-011
2.8975	6.4287e-011
2.9025	8.06421e-011
2.9075	8.12368e-011
2.9125	9.49904e-011
2.9175	1.07457e-010
2.9225	1.24537e-010
2.9275	1.47843e-010
2.9325	1.78789e-010
2.9375	2.27682e-010
2.9425	3.04198e-010
2.9475	3.74073e-010
2.9525	4.67232e-010
2.9575	6.41226e-010
2.9625	7.73629e-010
2.9675	9.32959e-010
2.9725	1.17974e-009
2.9775	1.4114e-009
2.9825	1.74665e-009
2.9875	2.10853e-009
2.9925	2.59042e-009
2.9975	3.14803e-009
3.0025	3.77193e-009
3.0075	4.6131e-009
3.0125	5.26966e-009
3.0175	6.26877e-009
3.0225	7.35359e-009
3.0275	8.55421e-009
3.0325	9.89049e-009
3.0375	1.11012e-008
3.0425	1.24759e-008
3.0475	1.40258e-008
3.0525	1.54173e-008
3.0575	1.68502e-008
3.0625	1.83324e-008
3.0675	1.97387e-008
3.0725	2.09133e-008
3.0775	2.25151e-008
3.0825	2.33302e-008
3.0875	2.3622e-008
3.0925	2.42936e-008
3.0975	2.46395e-008
3.1025	2.42194e-008
3.1075	2.42901e-008
3.1125	2.3584e-008
3.1175	2.25303e-008
3.1225	2.17308e-008
3.1275	2.0479e-008
3.1325	1.92205e-008
3.1375	1.79696e-008
3.1425	1.61711e-008
3.1475	1.47055e-008
3.1525	1.31489e-008
3.1575	1.17691e-008
3.1625	1.02263e-008
3.1675	8.92301e-009
3.1725	7.58965e-009
3.1775	6.51176e-009
3.1825	5.31476e-009
3.1875	4.50377e-009
3.1925	3.60876e-009
3.1975	2.94821e-009
3.2025	2.29158e-009
3.2075	1.88887e-009
3.2125	1.457e-009
3.2175	1.06768e-009
3.2225	8.99542e-010
3.2275	6.63694e-010
3.2325	5.2179e-010
3.2375	4.01777e-010
3.2425	3.19831e-010
3.2475	2.14887e-010
3.2525	2.36536e-010
3.2575	1.86211e-010
3.2625	1.59018e-010
3.2675	1.38713e-010
3.2725	1.18507e-010
3.2775	6.12267e-011
3.2825	5.9285e-011
3.2875	5.72438e-011
3.2925	4.93237e-011
3.2975	4.89163e-011
3.3025	1.42848e-012
3.3075	4.57117e-012
3.3125	3.23314e-012
3.3175	5.22274e-012
3.3225	3.13672e-012
3.3275	4.36402e-011
3.3325	4.58927e-011
3.3375	4.46645e-011
3.3425	4.53342e-011
3.3475	4.30408e-011
3.3525	8.87765e-011
3.3575	8.73764e-011
3.3625	8.90849e-011
3.3675	8.74329e-011
3.3725	8.96002e-011
3.3775	7.21046e-013
3.3825	2.26094e-012
3.3875	1.62952e-012
3.3925	2.09166e-012
3.3975	1.83908e-012
3.4025	8.86706e-011
3.4075	8.83563e-011
3.4125	8.86588e-011
3.4175	8.75572e-011
3.4225	8.7182e-011
3.4275	4.3511e-011
3.4325	4.46542e-011
3.4375	4.5472e-011
3.4425	4.49463e-011
3.4475	4.55805e-011
3.4525	3.35829e-012
3.4575	4.23503e-012
3.4625	2.26726e-012
3.4675	3.58641e-012
3.4725	2.91204e-012
3.4775	3.74618e-012
3.4825	4.64457e-012
3.4875	7.29633e-012
3.4925	6.11139e-012
3.4975	7.45645e-012
3.5025	1.00139e-011
3.5075	1.04467e-011
3.5125	1.30531e-011
3.5175	1.56758e-011
3.5225	1.98193e-011
3.5275	6.83657e-011
3.5325	6.89545e-011
3.5375	7.40655e-011
3.5425	7.94594e-011
3.5475	8.37695e-011
3.5525	8.7768e-011
3.5575	1.00641e-010
3.5625	1.07083e-010
3.5675	1.15146e-010
3.5725	1.26967e-010
3.5775	9.61036e-011
3.5825	1.06361e-010
3.5875	1.21702e-010
3.5925	1.36913e-010
3.5975	1.52718e-010
3.6025	1.69746e-010
3.6075	1.82408e-010
3.6125	2.01967e-010
3.6175	2.20903e-010
3.6225	2.34668e-010
3.6275	2.59627e-010
3.6325	2.75349e-010
3.6375	2.94014e-010
3.6425	3.11278e-010
3.6475	3.25342e-010
3.6525	3.84761e-010
3.6575	3.96145e-010
3.6625	4.1205e-010
3.6675	4.21427e-010
3.6725	4.29731e-010
3.6775	4.33227e-010
3.6825	4.40628e-010
3.6875	4.40532e-010
3.6925	4.40525e-010
3.6975	4.38996e-010
3.7025	4.34295e-010
3.7075	4.24869e-010
3.7125	4.12541e-010
3.7175	4.03151e-010
3.7225	3.8783e-010
3.7275	3.27761e-010
3.7325	3.11952e-010
3.7375	2.95547e-010
3.7425	2.74334e-010
3.7475	2.56549e-010
3.7525	2.38572e-010
3.7575	2.15298e-010
3.7625	1.98616e-010
3.7675	1.80684e-010
3.7725	1.61658e-010
3.7775	1.87241e-010
3.7825	1.73757e-010
3.7875	1.59016e-010
3.7925	1.44672e-010
3.7975	1.29999e-010
3.8025	7.7988e-011
3.8075	6.37951e-011
3.8125	5.49691e-011
3.8175	4.4027e-011
3.8225	3.81821e-011
3.8275	3.26607e-011
3.8325	2.71949e-011
3.8375	2.29761e-011
3.8425	1.83337e-011
3.8475	1.56405e-011
3.8525	1.27173e-011
3.8575	9.12386e-012
3.8625	7.79087e-012
3.8675	6.55278e-012
3.8725	5.34879e-012
3.8775	4.70237e-011
3.8825	4.58798e-011
3.8875	4.56409e-011
3.8925	4.52023e-011
3.8975	4.42391e-011
3.9025	8.73128e-011
3.9075	8.68692e-011
3.9125	8.69102e-011
3.9175	8.68301e-011
3.9225	8.65028e-011
3.9275	1.16996e-012
3.9325	1.94825e-013
3.9375	2.69179e-013
3.9425	4.65431e-013
3.9475	8.37234e-013
3.9525	4.32308e-011
3.9575	4.37585e-011
3.9625	4.31481e-011
3.9675	4.30927e-011
3.9725	4.33208e-011
3.9775	6.19821e-013
3.9825	6.72237e-014
3.9875	5.48756e-014
3.9925	7.17034e-014
3.9975	8.40784e-013
***
0.0025	7.34269e-007
0.0075	1.07159e-006
0.0125	8.11848e-007
0.0175	5.36978e-007
0.0225	3.46594e-007
0.0275	2.3504e-007
0.0325	1.74413e-007
0.0375	1.38495e-007
0.0425	1.14519e-007
0.0475	9.71157e-008
0.0525	8.22023e-008
0.0575	7.13772e-008
0.0625	6.16519e-008
0.0675	5.33906e-008
0.0725	4.60435e-008
0.0775	4.01661e-008
0.0825	3.50258e-008
0.0875	2.95225e-008
0.0925	2.50081e-008
0.0975	2.12925e-008
0.1025	1.75391e-008
0.1075	1.48564e-008
0.1125	1.22406e-008
0.1175	1.01581e-008
0.1225	8.43852e-009
0.1275	7.35939e-009
0.1325	6.56531e-009
0.1375	6.32006e-009
0.1425	5.98317e-009
0.1475	5.68109e-009
0.1525	5.36978e-009
0.1575	5.19164e-009
0.1625	5.02411e-009
0.1675	4.78675e-009
0.1725	4.62586e-009
0.1775	4.45171e-009
0.1825	4.36735e-009
0.1875	4.13446e-009
0.1925	3.97422e-009
0.1975	3.87796e-009
0.2025	3.73392e-009
0.2075	3.51647e-009
0.2125	3.48252e-009
0.2175	3.30913e-009
0.2225	3.28502e-009
0.2275	3.12259e-009
0.2325	3.14439e-009
0.2375	2.92083e-009
0.2425	2.87786e-009
0.2475	2.70357e-009
0.2525	2.69035e-009
0.2575	2.60586e-009
0.2625	2.48588e-009
0.2675	2.4564e-009
0.2725	2.42601e-009
0.2775	2.299e-009
0.2825	2.25675e-009
0.2875	2.20969e-009
0.2925	2.18772e-009
0.2975	2.09245e-009
0.3025	2.03337e-009
0.3075	1.98391e-009
0.3125	1.88178e-009
0.3175	1.83984e-009
0.3225	1.83853e-009
0.3275	1.74617e-009
0.3325	1.67814e-009
0.3375	1.63429e-009
0.3425	1.58146e-009
0.3475	1.55984e-009
0.3525	1.52909e-009
0.3575	1.50269e-009
0.3625	1.48413e-009
0.3675	1.39986e-009
0.3725	1.32879e-009
0.3775	1.33176e-009
0.3825	1.22234e-009
0.3875	1.20746e-009
0.3925	1.15684e-009
0.3975	1.0939e-009
0.4025	1.12388e-009
0.4075	1.05494e-009
0.4125	1.00746e-009
0.4175	9.5244e-010
0.4225	9.47691e-010
0.4275	8.70755e-010
0.4325	9.06422e-010
0.4375	8.56972e-010
0.4425	7.95595e-010
0.4475	7.97255e-010
0.4525	7.57882e-010
0.4575	7.2202e-010
0.4625	7.14376e-010
0.4675	6.59303e-010
0.4725	6.69084e-010
0.4775	6.00359e-010
0.4825	5.8669e-010
0.4875	5.79757e-010
0.4925	5.51819e-010
0.4975	5.18616e-010
0.5025	5.05257e-010
0.5075	5.08255e-010
0.5125	5.00972e-010
0.5175	4.73071e-010
0.5225	4.86856e-010
0.5275	4.45618e-010
0.5325	4.43215e-010
0.5375	4.33922e-010
0.5425	4.44037e-010
0.5475	4.48638e-010
0.5525	4.77808e-010
0.5575	4.84908e-010
0.5625	4.93699e-010
0.5675	5.01544e-010
0.5725	5.03459e-010
0.5775	4.98603e-010
0.5825	4.98019e-010
0.5875	5.15463e-010
0.5925	5.09522e-010
0.5975	5.31621e-010
0.6025	5.37973e-010
0.6075	5.54424e-010
0.6125	5.43456e-010
0.6175	5.53427e-010
0.6225	5.53322e-010
0.6275	5.29668e-010
0.6325	5.10306e-010
0.6375	4.9722e-010
0.6425	4.8459e-010
0.6475	4.92152e-010
0.6525	4.85774e-010
0.6575	4.955e-010
0.6625	5.22989e-010
0.6675	5.37837e-010
0.6725	5.66233e-010
0.6775	6.04558e-010
0.6825	6.31246e-010
0.6875	6.60107e-010
0.6925	6.9294e-010
0.6975	7.28881e-010
0.7025	8.0917e-010
0.7075	8.42864e-010
0.7125	8.93465e-010
0.7175	9.41565e-010
0.7225	9.68425e-010
0.7275	1.00533e-009
0.7325	1.05682e-009
0.7375	1.13957e-009
0.7425	1.2329e-009
0.7475	1.41447e-009
0.7525	1.72388e-009
0.7575	2.17201e-009
0.7625	2.88809e-009
0.7675	3.79455e-009
0.7725	4.70922e-009
0.7775	5.50208e-009
0.7825	5.67241e-009
0.7875	5.27699e-009
0.7925	4.43275e-009
0.7975	3.31976e-009
0.8025	2.38741e-009
0.8075	1.62317e-009
0.8125	1.12541e-009
0.8175	8.21982e-010
0.8225	6.49089e-010
0.8275	5.11087e-010
0.8325	4.41818e-010
0.8375	3.81974e-010
0.8425	3.34684e-010
0.8475	3.04144e-010
0.8525	2.8378e-010
0.8575	2.51117e-010
0.8625	2.25832e-010
0.8675	2.06512e-010
0.8725	1.93947e-010
0.8775	1.78248e-010
0.8825	1.68664e-010
0.8875	1.52511e-010
0.8925	1.4552e-010
0.8975	1.344e-010
0.9025	1.24835e-010
0.9075	1.16964e-010
0.9125	1.09059e-010
0.9175	1.00062e-010
0.9225	9.39867e-011
0.9275	9.48987e-011
0.9325	9.0307e-011
0.9375	8.55881e-011
0.9425	8.35209e-011
0.9475	8.25714e-011
0.9525	9.89387e-011
0.9575	1.02564e-010
0.9625	1.09703e-010
0.9675	1.27131e-010
0.9725	1.61091e-010
0.9775	2.06822e-010
0.9825	3.12533e-010
0.9875	4.88631e-010
0.9925	7.64386e-010
0.9975	1.13015e-009
1.0025	1.58443e-009
1.0075	2.06063e-009
1.0125	2.43166e-009
1.0175	2.63945e-009
1.0225	2.5944e-009
1.0275	2.31863e-009
1.0325	1.88494e-009
1.0375	1.40178e-009
1.0425	9.64619e-010
1.0475	6.11024e-010
1.0525	3.71011e-010
1.0575	2.23426e-010
1.0625	1.375e-010
1.0675	8.92008e-011
1.0725	6.72958e-011
1.0775	5.56345e-011
1.0825	4.82918e-011
1.0875	4.28143e-011
1.0925	3.81911e-011
1.0975	3.71069e-011
1.1025	3.90727e-011
1.1075	3.76001e-011
1.1125	3.68797e-011
1.1175	3.5008e-011
1.1225	3.25682e-011
1.1275	2.73781e-011
1.1325	2.76396e-011
1.1375	2.77686e-011
1.1425	2.52787e-011
1.1475	2.5159e-011
1.1525	1.93207e-011
1.1575	1.92049e-011
1.1625	1.83913e-011
1.1675	1.88305e-011
1.1725	1.77334e-011
1.1775	3.89845e-011
1.1825	3.97178e-011
1.1875	3.8949e-011
1.1925	3.86152e-011
1.1975	3.7548e-011
1.2025	1.58919e-011
1.2075	1.59754e-011
1.2125	1.58042e-011
1.2175	1.49225e-011
1.2225	1.46168e-011
1.2275	2.72966e-011
1.2325	2.7341e-011
1.2375	2.72721e-011
1.2425	2.699e-011
1.2475	2.71398e-011
1.2525	4.01173e-011
1.2575	3.99171e-011
1.2625	4.03648e-011
1.2675	4.01981e-011
1.2725	3.9797e-011
1.2775	2.19105e-011
1.2825	2.22117e-011
1.2875	2.16056e-011
1.2925	2.15687e-011
1.2975	2.15571e-011
1.3025	1.70984e-011
1.3075	1.67509e-011
1.3125	1.67389e-011
1.3175	1.65156e-011
1.3225	1.68896e-011
1.3275	7.38468e-012
1.3325	7.39761e-012
1.3375	7.26294e-012
1.3425	7.45128e-012
1.3475	7.22198e-012
1.3525	3.07e-012
1.3575	2.31566e-012
1.3625	2.59096e-012
1.3675	3.15852e-012
1.3725	2.05424e-012
1.3775	2.0337e-011
1.3825	1.99426e-011
1.3875	1.98648e-011
1.3925	1.98344e-011
1.3975	1.99751e-011
1.4025	1.10143e-011
1.4075	1.0597e-011
1.4125	1.10503e-011
1.4175	1.08517e-011
1.4225	1.09128e-011
1.4275	1.52315e-011
1.4325	1.48501e-011
1.4375	1.50448e-011
1.4425	1.49557e-011
1.4475	1.48135e-011
1.4525	2.81866e-011
1.4575	2.82645e-011
1.4625	2.85948e-011
1.4675	2.7994e-011
1.4725	2.79568e-011
1.4775	1.01749e-011
1.4825	1.01084e-011
1.4875	1.02412e-011
1.4925	1.06847e-011
1.4975	1.05649e-011
1.5025	1.4642e-011
1.5075	1.44058e-011
1.5125	1.45983e-011
1.5175	1.4228e-011
1.5225	1.42815e-011
1.5275	1.44572e-011
1.5325	1.45517e-011
1.5375	1.43937e-011
1.5425	1.40907e-011
1.5475	1.40784e-011
1.5525	5.46598e-012
1.5575	5.26264e-012
1.5625	5.49137e-012
1.5675	5.2836e-012
1.5725	5.27206e-012
1.5775	5.17972e-012
1.5825	5.10963e-012
1.5875	5.45425e-012
1.5925	5.29515e-012
1.5975	5.18975e-012
1.6025	7.97549e-013
1.6075	8.79235e-013
1.6125	6.04053e-013
1.6175	6.52299e-013
1.6225	8.66007e-013
1.6275	1.40339e-011
1.6325	1.38163e-011
1.6375	1.40056e-011
1.6425	1.38461e-011
1.6475	1.3962e-011
1.6525	8.59562e-013
1.6575	6.7481e-013
1.6625	4.55103e-013
1.6675	6.14987e-013
1.6725	4.47005e-013
1.6775	1.40138e-011
1.6825	1.37634e-011
1.6875	1.38519e-011
1.6925	1.37221e-011
1.6975	1.38083e-011
1.7025	3.10548e-013
1.7075	7.2899e-013
1.7125	3.18168e-013
1.7175	3.91132e-013
1.7225	2.96714e-013
1.7275	1.82234e-011
1.7325	1.82407e-011
1.7375	1.83951e-011
1.7425	1.81801e-011
1.7475	1.82298e-011
1.7525	4.74476e-012
1.7575	4.94957e-012
1.7625	4.91456e-012
1.7675	4.85474e-012
1.7725	4.83348e-012
1.7775	4.89816e-012
1.7825	4.77973e-012
1.7875	4.80922e-012
1.7925	4.9021e-012
1.7975	4.75961e-012
1.8025	1.82598e-011
1.8075	1.8148e-011
1.8125	1.80016e-011
1.8175	1.81705e-011
1.8225	1.81013e-011
1.8275	9.15792e-012
1.8325	9.14226e-012
1.8375	9.21347e-012
1.8425	9.15371e-012
1.8475	9.32575e-012
1.8525	9.32935e-012
1.8575	9.20822e-012
1.8625	9.16199e-012
1.8675	9.23407e-012
1.8725	9.06856e-012
1.8775	2.83945e-013
1.8825	2.33946e-013
1.8875	3.32557e-013
1.8925	1.88398e-013
1.8975	5.47684e-013
1.9025	4.83793e-012
1.9075	4.68964e-012
1.9125	4.82392e-012
1.9175	4.6262e-012
1.9225	4.5411e-012
1.9275	9.3749e-012
1.9325	9.13381e-012
1.9375	9.1534e-012
1.9425	9.1844e-012
1.9475	9.05005e-012
1.9525	2.68957e-011
1.9575	2.6909e-011
1.9625	2.69278e-011
1.9675	2.69284e-011
1.9725	2.68718e-011
1.9775	8.97644e-012
1.9825	9.03391e-012
1.9875	9.13783e-012
1.9925	9.13932e-012
1.9975	9.12972e-012
2.0025	1.79412e-011
2.0075	1.79794e-011
2.0125	1.80088e-011
2.0175	1.80448e-011
2.0225	1.8022e-011
2.0275	1.35664e-011
2.0325	1.35127e-011
2.0375	1.34904e-011
2.0425	1.34691e-011
2.0475	1.34851e-011
2.0525	4.52037e-012
2.0575	4.62534e-012
2.0625	4.56593e-012
2.0675	4.66678e-012
2.0725	4.546e-012
2.0775	4.55015e-012
2.0825	4.66384e-012
2.0875	4.58548e-012
2.0925	4.61952e-012
2.0975	4.50256e-012
2.1025	9.06616e-012
2.1075	9.00445e-012
2.1125	9.14535e-012
2.1175	9.00499e-012
2.1225	9.05217e-012
2.1275	4.59157e-012
2.1325	4.63161e-012
2.1375	4.82064e-012
2.1425	4.58823e-012
2.1475	4.58065e-012
2.1525	1.79843e-011
2.1575	1.78806e-011
2.1625	1.79282e-011
2.1675	1.80244e-011
2.1725	1.78947e-011
2.1775	8.96021e-012
2.1825	9.08769e-012
2.1875	9.02546e-012
2.1925	8.97795e-012
2.1975	9.08706e-012
2.2025	9.02454e-012
2.2075	9.03023e-012
2.2125	9.07738e-012
2.2175	9.03674e-012
2.2225	8.97216e-012
2.2275	4.57013e-012
2.2325	4.46948e-012
2.2375	4.57694e-012
2.2425	4.53069e-012
2.2475	4.60871e-012
2.2525	4.53361e-012
2.2575	4.52832e-012
2.2625	4.5246e-012
2.2675	4.741e-012
2.2725	4.53559e-012
2.2775	1.43684e-013
2.2825	7.16933e-014
2.2875	8.34821e-014
2.2925	1.18522e-013
2.2975	1.1473e-013
2.3025	8.9967e-012
2.3075	9.06937e-012
2.3125	9.03841e-012
2.3175	9.0225e-012
2.3225	9.05751e-012
2.3275	8.95826e-012
2.3325	8.96832e-012
2.3375	9.0198e-012
2.3425	9.01797e-012
2.3475	9.09169e-012
2.3525	4.55811e-012
2.3575	4.54994e-012
2.3625	4.49418e-012
2.3675	4.50368e-012
2.3725	4.56524e-012
2.3775	4.53808e-012
2.3825	4.57609e-012
2.3875	4.49716e-012
2.3925	4.5175e-012
2.3975	4.49257e-012
2.4025	4.59981e-012
2.4075	4.53619e-012
2.4125	4.58184e-012
2.4175	4.52311e-012
2.4225	4.49726e-012
2.4275	8.9346e-012
2.4325	8.97696e-012
2.4375	8.96592e-012
2.4425	8.95277e-012
2.4475	8.9815e-012
2.4525	4.74633e-012
2.4575	4.50195e-012
2.4625	4.48546e-012
2.4675	4.50343e-012
2.4725	4.539e-012
2.4775	4.55819e-012
2.4825	4.54155e-012
2.4875	4.48078e-012
2.4925	4.52183e-012
2.4975	4.46672e-012
2.5025	1.35893e-013
2.5075	1.74183e-013
2.5125	1.55179e-013
2.5175	1.71258e-014
2.5225	1.03277e-013
2.5275	1.04527e-013
2.5325	2.58665e-014
2.5375	7.6737e-014
2.5425	5.21169e-014
2.5475	2.8814e-013
2.5525	8.93201e-012
2.5575	8.97705e-012
2.5625	8.9875e-012
2.5675	8.93742e-012
2.5725	9.14995e-012
2.5775	4.4726e-012
2.5825	4.47516e-012
2.5875	4.64933e-012
2.5925	4.47987e-012
2.5975	4.49655e-012
2.6025	4.47678e-012
2.6075	4.51771e-012
2.6125	4.58966e-012
2.6175	4.57181e-012
2.6225	4.5054e-012
2.6275	8.90484e-012
2.6325	8.99774e-012
2.6375	8.94701e-012
2.6425	9.0114e-012
2.6475	8.9508e-012
2.6525	4.49609e-012
2.6575	4.51654e-012
2.6625	4.45242e-012
2.6675	4.50217e-012
2.6725	4.51796e-012
2.6775	8.97553e-012
2.6825	8.98726e-012
2.6875	8.95499e-012
2.6925	8.93223e-012
2.6975	8.90484e-012
2.7025	4.47993e-012
2.7075	4.56678e-012
2.7125	4.50012e-012
2.7175	4.60091e-012
2.7225	4.50589e-012
2.7275	1.34183e-011
2.7325	1.3404e-011
2.7375	1.34312e-011
2.7425	1.34964e-011
2.7475	1.3488e-011
2.7525	8.94582e-012
2.7575	8.94015e-012
2.7625	8.92345e-012
2.7675	8.94982e-012
2.7725	9.22857e-012
2.7775	4.49737e-012
2.7825	4.53371e-012
2.7875	4.59229e-012
2.7925	4.4822e-012
2.7975	4.56132e-012
2.8025	4.54011e-012
2.8075	4.57335e-012
2.8125	4.64475e-012
2.8175	4.68831e-012
2.8225	4.56685e-012
2.8275	1.34275e-013
2.8325	2.04905e-013
2.8375	2.18107e-013
2.8425	1.32595e-013
2.8475	2.51451e-013
2.8525	5.37252e-013
2.8575	4.91392e-013
2.8625	6.11392e-013
2.8675	6.80138e-013
2.8725	1.35959e-012
2.8775	6.24729e-012
2.8825	5.73138e-012
2.8875	6.84143e-012
2.8925	6.85496e-012
2.8975	7.10822e-012
2.9025	1.247e-011
2.9075	1.40074e-011
2.9125	1.55784e-011
2.9175	1.6723e-011
2.9225	1.97771e-011
2.9275	1.53351e-011
2.9325	1.73039e-011
2.9375	2.12788e-011
2.9425	2.54098e-011
2.9475	3.21188e-011
2.9525	4.0426e-011
2.9575	5.10154e-011
2.9625	6.02994e-011
2.9675	7.53161e-011
2.9725	8.96694e-011
2.9775	1.07799e-010
2.9825	1.33431e-010
2.9875	1.53739e-010
2.9925	1.85093e-010
2.9975	2.17723e-010
3.0025	2.6194e-010
3.0075	2.96384e-010
3.0125	3.45685e-010
3.0175	3.94844e-010
3.0225	4.55389e-010
3.0275	5.01374e-010
3.0325	5.69973e-010
3.0375	6.32295e-010
3.0425	7.01978e-010
3.0475	7.67654e-010
3.0525	8.51303e-010
3.0575	9.13125e-010
3.0625	9.9392e-010
3.0675	1.04033e-009
3.0725	1.07929e-009
3.0775	1.16038e-009
3.0825	1.19735e-009
3.0875	1.23212e-009
3.0925	1.25381e-009
3.0975	1.27987e-009
3.1025	1.28491e-009
3.1075	1.27216e-009
3.1125	1.2496e-009
3.1175	1.23274e-009
3.1225	1.18921e-009
3.1275	1.13532e-009
3.1325	1.07251e-009
3.1375	1.00617e-009
3.1425	9.41814e-010
3.1475	8.65217e-010
3.1525	7.91048e-010
3.1575	7.20185e-010
3.1625	6.49053e-010
3.1675	5.6865e-010
3.1725	5.11159e-010
3.1775	4.43733e-010
3.1825	3.92955e-010
3.1875	3.29015e-010
3.1925	2.82314e-010
3.1975	2.19721e-010
3.2025	1.98582e-010
3.2075	1.62151e-010
3.2125	1.35108e-010
3.2175	1.06756e-010
3.2225	8.34087e-011
3.2275	6.46642e-011
3.2325	5.17071e-011
3.2375	3.59644e-011
3.2425	3.04522e-011
3.2475	2.36377e-011
3.2525	2.00545e-011
3.2575	1.71859e-011
3.2625	1.35989e-011
3.2675	1.18825e-011
3.2725	8.72675e-012
3.2775	7.84621e-012
3.2825	7.26409e-012
3.2875	6.32406e-012
3.2925	5.6991e-012
3.2975	5.31432e-012
3.3025	7.12909e-013
3.3075	4.6788e-013
3.3125	4.53739e-013
3.3175	1.24656e-013
3.3225	3.62038e-013
3.3275	1.01072e-013
3.3325	1.36408e-013
3.3375	1.00537e-013
3.3425	1.33402e-013
3.3475	1.27931e-013
3.3525	2.40101e-014
3.3575	2.05093e-014
3.3625	2.47104e-014
3.3675	1.08808e-013
3.3725	4.65127e-015
3.3775	9.47459e-014
3.3825	1.16687e-013
3.3875	8.48149e-014
3.3925	1.08098e-013
3.3975	2.12924e-013
3.4025	4.55934e-012
3.4075	4.4999e-012
3.4125	4.55701e-012
3.4175	4.59052e-012
3.4225	4.58446e-012
3.4275	4.5579e-012
3.4325	4.60214e-012
3.4375	4.54754e-012
3.4425	4.68762e-012
3.4475	4.62782e-012
3.4525	1.34921e-011
3.4575	1.36176e-011
3.4625	1.35731e-011
3.4675	1.37484e-011
3.4725	1.36772e-011
3.4775	3.79364e-013
3.4825	4.98502e-013
3.4875	5.13645e-013
3.4925	6.37296e-013
3.4975	7.38666e-013
3.5025	5.29423e-012
3.5075	5.45528e-012
3.5125	5.59646e-012
3.5175	5.87952e-012
3.5225	5.97601e-012
3.5275	1.9132e-012
3.5325	2.09314e-012
3.5375	2.40572e-012
3.5425	2.82551e-012
3.5475	3.24383e-012
3.5525	3.71041e-012
3.5575	4.11477e-012
3.5625	4.58131e-012
3.5675	5.38321e-012
3.5725	6.05233e-012
3.5775	6.74612e-012
3.5825	7.57244e-012
3.5875	8.16352e-012
3.5925	8.96763e-012
3.5975	9.91938e-012
3.6025	1.07885e-011
3.6075	1.17125e-011
3.6125	1.29061e-011
3.6175	1.35451e-011
3.6225	1.4716e-011
3.6275	1.99901e-011
3.6325	2.10141e-011
3.6375	2.20123e-011
3.6425	2.32235e-011
3.6475	2.45126e-011
3.6525	2.0692e-011
3.6575	2.13743e-011
3.6625	2.19088e-011
3.6675	2.24505e-011
3.6725	2.30395e-011
3.6775	2.38523e-011
3.6825	2.40601e-011
3.6875	2.41808e-011
3.6925	2.40878e-011
3.6975	2.39895e-011
3.7025	2.37751e-011
3.7075	2.32444e-011
3.7125	2.2971e-011
3.7175	2.22339e-011
3.7225	2.20718e-011
3.7275	2.07326e-011
3.7325	1.99097e-011
3.7375	1.90658e-011
3.7425	1.79729e-011
3.7475	1.70428e-011
3.7525	1.60337e-011
3.7575	1.47661e-011
3.7625	1.36563e-011
3.7675	1.25575e-011
3.7725	1.1528e-011
3.7775	1.06406e-011
3.7825	9.42549e-012
3.7875	8.66501e-012
3.7925	7.68294e-012
3.7975	6.91876e-012
3.8025	5.9125e-012
3.8075	5.52523e-012
3.8125	4.58725e-012
3.8175	4.06343e-012
3.8225	3.38922e-012
3.8275	7.35091e-012
3.8325	6.96523e-012
3.8375	6.64357e-012
3.8425	6.35499e-012
3.8475	5.92301e-012
3.8525	1.26968e-012
3.8575	1.02983e-012
3.8625	8.59286e-013
3.8675	6.77924e-013
3.8725	5.69618e-013
3.8775	5.11883e-013
3.8825	4.33291e-013
3.8875	2.66721e-013
3.8925	2.31472e-013
3.8975	2.18019e-013
3.9025	1.1184e-013
3.9075	1.21962e-013
3.9125	9.4788e-014
3.9175	6.85633e-014
3.9225	5.76645e-014
3.9275	4.51199e-012
3.9325	4.4841e-012
3.9375	4.4738e-012
3.9425	4.48716e-012
3.9475	4.46102e-012
3.9525	4.4884e-012
3.9575	4.45902e-012
3.9625	4.46371e-012
3.9675	4.45504e-012
3.9725	4.47719e-012
3.9775	3.17114e-014
3.9825	4.53921e-014
3.9875	3.4156e-014
3.9925	3.03737e-014
3.9975	4.94866e-015
***
0.0025	3.45477e-008
0.0075	5.45924e-008
0.0125	4.51324e-008
0.0175	3.27976e-008
0.0225	2.25992e-008
0.0275	1.55215e-008
0.0325	1.10991e-008
0.0375	8.50791e-009
0.0425	6.82195e-009
0.0475	5.691e-009
0.0525	4.81353e-009
0.0575	4.08709e-009
0.0625	3.55553e-009
0.0675	3.0633e-009
0.0725	2.63682e-009
0.0775	2.29786e-009
0.0825	1.95698e-009
0.0875	1.70066e-009
0.0925	1.43811e-009
0.0975	1.2267e-009
0.1025	1.03675e-009
0.1075	8.51684e-010
0.1125	7.14738e-010
0.1175	5.98317e-010
0.1225	5.06718e-010
0.1275	4.37967e-010
0.1325	3.95595e-010
0.1375	3.69435e-010
0.1425	3.40936e-010
0.1475	3.34852e-010
0.1525	3.16193e-010
0.1575	3.02021e-010
0.1625	2.90488e-010
0.1675	2.78256e-010
0.1725	2.71663e-010
0.1775	2.64858e-010
0.1825	2.46916e-010
0.1875	2.43375e-010
0.1925	2.29736e-010
0.1975	2.23207e-010
0.2025	2.2349e-010
0.2075	2.13255e-010
0.2125	2.05762e-010
0.2175	1.99426e-010
0.2225	1.93282e-010
0.2275	1.85477e-010
0.2325	1.80744e-010
0.2375	1.73012e-010
0.2425	1.69722e-010
0.2475	1.65088e-010
0.2525	1.60992e-010
0.2575	1.57352e-010
0.2625	1.48541e-010
0.2675	1.48403e-010
0.2725	1.42881e-010
0.2775	1.41663e-010
0.2825	1.38485e-010
0.2875	1.33692e-010
0.2925	1.29123e-010
0.2975	1.22829e-010
0.3025	1.19266e-010
0.3075	1.18358e-010
0.3125	1.13318e-010
0.3175	1.10847e-010
0.3225	1.07626e-010
0.3275	1.04432e-010
0.3325	1.04348e-010
0.3375	9.82808e-011
0.3425	9.84152e-011
0.3475	9.53791e-011
0.3525	9.13463e-011
0.3575	8.67789e-011
0.3625	8.55019e-011
0.3675	8.54545e-011
0.3725	8.07008e-011
0.3775	7.84878e-011
0.3825	7.44096e-011
0.3875	7.48112e-011
0.3925	6.93875e-011
0.3975	6.8346e-011
0.4025	6.70383e-011
0.4075	6.51582e-011
0.4125	6.18863e-011
0.4175	6.01058e-011
0.4225	5.86836e-011
0.4275	5.49288e-011
0.4325	5.51314e-011
0.4375	5.30877e-011
0.4425	4.84847e-011
0.4475	4.87099e-011
0.4525	4.62071e-011
0.4575	4.4716e-011
0.4625	4.25848e-011
0.4675	4.14494e-011
0.4725	4.04777e-011
0.4775	3.60494e-011
0.4825	3.60387e-011
0.4875	3.411e-011
0.4925	3.46083e-011
0.4975	3.21832e-011
0.5025	3.26903e-011
0.5075	3.10283e-011
0.5125	2.97828e-011
0.5175	3.0284e-011
0.5225	2.90768e-011
0.5275	2.96481e-011
0.5325	2.89529e-011
0.5375	2.92066e-011
0.5425	2.89762e-011
0.5475	2.91873e-011
0.5525	2.98829e-011
0.5575	2.97444e-011
0.5625	3.00504e-011
0.5675	3.08141e-011
0.5725	3.03238e-011
0.5775	3.15594e-011
0.5825	3.2298e-011
0.5875	3.28871e-011
0.5925	3.294e-011
0.5975	3.30212e-011
0.6025	3.41965e-011
0.6075	3.46312e-011
0.6125	3.51973e-011
0.6175	3.52491e-011
0.6225	3.59565e-011
0.6275	3.47738e-011
0.6325	3.45388e-011
0.6375	3.42512e-011
0.6425	3.4104e-011
0.6475	3.374e-011
0.6525	3.4562e-011
0.6575	3.54127e-011
0.6625	3.66723e-011
0.6675	3.80851e-011
0.6725	4.03167e-011
0.6775	4.28201e-011
0.6825	4.46746e-011
0.6875	4.72374e-011
0.6925	4.95783e-011
0.6975	5.25263e-011
0.7025	5.59982e-011
0.7075	5.89182e-011
0.7125	6.22472e-011
0.7175	6.63377e-011
0.7225	6.91191e-011
0.7275	7.38903e-011
0.7325	7.85918e-011
0.7375	8.75827e-011
0.7425	9.90442e-011
0.7475	1.14562e-010
0.7525	1.41432e-010
0.7575	1.77736e-010
0.7625	2.26054e-010
0.7675	2.82833e-010
0.7725	3.37903e-010
0.7775	3.78828e-010
0.7825	3.94225e-010
0.7875	3.72314e-010
0.7925	3.25209e-010
0.7975	2.63101e-010
0.8025	1.98552e-010
0.8075	1.4442e-010
0.8125	1.02277e-010
0.8175	7.47132e-011
0.8225	5.54338e-011
0.8275	4.32408e-011
0.8325	3.5674e-011
0.8375	3.04536e-011
0.8425	2.62426e-011
0.8475	2.37702e-011
0.8525	2.10703e-011
0.8575	1.95157e-011
0.8625	1.76134e-011
0.8675	1.58166e-011
0.8725	1.48732e-011
0.8775	1.34464e-011
0.8825	1.27049e-011
0.8875	1.14975e-011
0.8925	1.09605e-011
0.8975	1.01466e-011
0.9025	1.0097e-011
0.9075	9.35887e-012
0.9125	8.74243e-012
0.9175	8.41623e-012
0.9225	8.03296e-012
0.9275	7.83529e-012
0.9325	7.48401e-012
0.9375	7.29384e-012
0.9425	7.38975e-012
0.9475	7.39335e-012
0.9525	7.86239e-012
0.9575	8.69705e-012
0.9625	1.02435e-011
0.9675	1.26041e-011
0.9725	1.71378e-011
0.9775	2.49674e-011
0.9825	3.62542e-011
0.9875	5.31044e-011
0.9925	7.52988e-011
0.9975	1.02996e-010
1.0025	1.34358e-010
1.0075	1.64326e-010
1.0125	1.8863e-010
1.0175	2.01464e-010
1.0225	2.00483e-010
1.0275	1.85359e-010
1.0325	1.59496e-010
1.0375	1.28134e-010
1.0425	9.59871e-011
1.0475	6.73598e-011
1.0525	4.50789e-011
1.0575	2.9047e-011
1.0625	1.82683e-011
1.0675	1.19317e-011
1.0725	7.62544e-012
1.0775	5.30691e-012
1.0825	3.92586e-012
1.0875	3.28605e-012
1.0925	2.73839e-012
1.0975	2.38471e-012
1.1025	2.54587e-012
1.1075	2.42471e-012
1.1125	2.29474e-012
1.1175	2.20127e-012
1.1225	1.99375e-012
1.1275	1.95215e-012
1.1325	1.90141e-012
1.1375	1.83709e-012
1.1425	1.79391e-012
1.1475	1.63752e-012
1.1525	1.38742e-012
1.1575	1.35339e-012
1.1625	1.3298e-012
1.1675	1.236e-012
1.1725	1.20072e-012
1.1775	1.20282e-012
1.1825	1.15693e-012
1.1875	1.08189e-012
1.1925	1.07723e-012
1.1975	1.05241e-012
1.2025	5.45758e-013
1.2075	5.45511e-013
1.2125	5.26034e-013
1.2175	5.00817e-013
1.2225	4.82448e-013
1.2275	4.75883e-013
1.2325	4.2999e-013
1.2375	4.23171e-013
1.2425	4.30641e-013
1.2475	4.33588e-013
1.2525	1.31788e-012
1.2575	1.29055e-012
1.2625	1.26893e-012
1.2675	1.26493e-012
1.2725	1.22887e-012
1.2775	1.25851e-012
1.2825	1.21342e-012
1.2875	1.25732e-012
1.2925	1.21175e-012
1.2975	1.23603e-012
1.3025	1.17927e-012
1.3075	1.18061e-012
1.3125	1.16954e-012
1.3175	1.17655e-012
1.3225	1.15302e-012
1.3275	1.13986e-012
1.3325	1.12846e-012
1.3375	1.11554e-012
1.3425	1.12163e-012
1.3475	1.1196e-012
1.3525	8.88789e-013
1.3575	9.17009e-013
1.3625	8.95585e-013
1.3675	8.86113e-013
1.3725	8.61185e-013
1.3775	8.42599e-013
1.3825	8.59729e-013
1.3875	8.68991e-013
1.3925	8.59002e-013
1.3975	8.42234e-013
1.4025	1.68797e-013
1.4075	1.43765e-013
1.4125	1.42568e-013
1.4175	1.31744e-013
1.4225	1.20708e-013
1.4275	1.24369e-013
1.4325	1.35125e-013
1.4375	1.11925e-013
1.4425	1.22409e-013
1.4475	1.25129e-013
1.4525	1.25045e-012
1.4575	1.25553e-012
1.4625	1.24976e-012
1.4675	1.2388e-012
1.4725	1.24065e-012
1.4775	1.26027e-012
1.4825	1.25004e-012
1.4875	1.24303e-012
1.4925	1.24152e-012
1.4975	1.25971e-012
1.5025	5.49101e-013
1.5075	5.40717e-013
1.5125	5.55808e-013
1.5175	5.43607e-013
1.5225	5.53079e-013
1.5275	5.43458e-013
1.5325	5.41957e-013
1.5375	5.39383e-013
1.5425	5.37271e-013
1.5475	5.31911e-013
1.5525	6.88588e-014
1.5575	7.29527e-014
1.5625	6.82961e-014
1.5675	8.44305e-014
1.5725	5.88855e-014
1.5775	6.3397e-014
1.5825	5.54101e-014
1.5875	6.06869e-014
1.5925	5.94009e-014
1.5975	5.11016e-014
1.6025	7.48417e-013
1.6075	7.29902e-013
1.6125	7.47996e-013
1.6175	7.52544e-013
1.6225	7.36663e-013
1.6275	7.43517e-013
1.6325	7.52005e-013
1.6375	7.39166e-013
1.6425	7.37512e-013
1.6475	7.31288e-013
1.6525	5.01342e-013
1.6575	5.10061e-013
1.6625	5.03034e-013
1.6675	4.95662e-013
1.6725	5.02286e-013
1.6775	5.00039e-013
1.6825	4.88859e-013
1.6875	4.88819e-013
1.6925	4.94002e-013
1.6975	4.96048e-013
1.7025	3.79232e-014
1.7075	3.69334e-014
1.7125	3.73051e-014
1.7175	3.55506e-014
1.7225	3.36652e-014
1.7275	3.02811e-014
1.7325	2.56387e-014
1.7375	4.00373e-014
1.7425	3.30997e-014
1.7475	3.26889e-014
1.7525	2.55933e-013
1.7575	2.53275e-013
1.7625	2.58151e-013
1.7675	2.55038e-013
1.7725	2.72109e-013
1.7775	2.55976e-013
1.7825	2.5601e-013
1.7875	2.53744e-013
1.7925	2.62324e-013
1.7975	2.51158e-013
1.8025	4.86558e-013
1.8075	4.83777e-013
1.8125	4.7905e-013
1.8175	4.82464e-013
1.8225	4.82076e-013
1.8275	4.88915e-013
1.8325	4.90534e-013
1.8375	4.79298e-013
1.8425	4.77518e-013
1.8475	4.77952e-013
1.8525	7.1439e-013
1.8575	7.02598e-013
1.8625	7.14601e-013
1.8675	7.07132e-013
1.8725	7.08243e-013
1.8775	7.07231e-013
1.8825	7.09936e-013
1.8875	7.08613e-013
1.8925	7.14727e-013
1.8975	7.04418e-013
1.9025	7.15686e-013
1.9075	7.03725e-013
1.9125	7.05771e-013
1.9175	7.03885e-013
1.9225	7.06294e-013
1.9275	7.02361e-013
1.9325	7.04703e-013
1.9375	7.05772e-013
1.9425	7.01401e-013
1.9475	6.99461e-013
1.9525	4.72194e-013
1.9575	4.71576e-013
1.9625	4.71504e-013
1.9675	4.71846e-013
1.9725	4.67233e-013
1.9775	4.70691e-013
1.9825	4.73723e-013
1.9875	4.70908e-013
1.9925	4.72174e-013
1.9975	4.69254e-013
2.0025	4.80176e-013
2.0075	4.79556e-013
2.0125	4.71273e-013
2.0175	4.6792e-013
2.0225	4.64252e-013
2.0275	4.69293e-013
2.0325	4.75526e-013
2.0375	4.69238e-013
2.0425	4.68592e-013
2.0475	4.7703e-013
2.0525	2.40087e-013
2.0575	2.38936e-013
2.0625	2.38353e-013
2.0675	2.41817e-013
2.0725	2.39961e-013
2.0775	2.36536e-013
2.0825	2.40018e-013
2.0875	2.4215e-013
2.0925	2.42623e-013
2.0975	2.41594e-013
2.1025	4.69304e-013
2.1075	4.69897e-013
2.1125	4.69927e-013
2.1175	4.68868e-013
2.1225	4.68463e-013
2.1275	4.6931e-013
2.1325	4.71816e-013
2.1375	4.64016e-013
2.1425	4.64704e-013
2.1475	4.65456e-013
2.1525	6.95043e-013
2.1575	6.9512e-013
2.1625	6.99337e-013
2.1675	7.08992e-013
2.1725	7.01575e-013
2.1775	6.95626e-013
2.1825	6.97039e-013
2.1875	6.94833e-013
2.1925	6.97639e-013
2.1975	6.95688e-013
2.2025	9.26892e-013
2.2075	9.25651e-013
2.2125	9.23709e-013
2.2175	9.25984e-013
2.2225	9.26222e-013
2.2275	9.23808e-013
2.2325	9.22923e-013
2.2375	9.25123e-013
2.2425	9.23227e-013
2.2475	9.27518e-013
2.2525	6.31808e-015
2.2575	8.00018e-015
2.2625	5.90194e-015
2.2675	4.11468e-015
2.2725	4.24413e-015
2.2775	4.61636e-015
2.2825	6.64175e-015
2.2875	5.41017e-015
2.2925	7.30928e-015
2.2975	7.35279e-015
2.3025	6.43779e-015
2.3075	3.12605e-015
2.3125	4.76914e-015
2.3175	4.97708e-015
2.3225	4.97226e-015
2.3275	4.6e-015
2.3325	5.25889e-015
2.3375	7.11081e-015
2.3425	6.18527e-015
2.3475	5.28127e-015
2.3525	2.86648e-015
2.3575	4.12815e-015
2.3625	5.57732e-015
2.3675	5.52959e-015
2.3725	5.24523e-015
2.3775	4.7022e-015
2.3825	6.93998e-015
2.3875	5.96197e-015
2.3925	5.91936e-015
2.3975	7.08635e-015
2.4025	4.6248e-013
2.4075	4.61048e-013
2.4125	4.64977e-013
2.4175	4.62623e-013
2.4225	4.6587e-013
2.4275	4.65424e-013
2.4325	4.62015e-013
2.4375	4.62556e-013
2.4425	4.62579e-013
2.4475	4.62434e-013
2.4525	2.38639e-015
2.4575	3.13639e-015
2.4625	3.99762e-015
2.4675	3.54542e-015
2.4725	9.78599e-016
2.4775	2.55168e-015
2.4825	3.66768e-015
2.4875	4.47208e-015
2.4925	1.8938e-015
2.4975	1.26759e-015
2.5025	2.32852e-013
2.5075	2.33738e-013
2.5125	2.36763e-013
2.5175	2.31555e-013
2.5225	2.33333e-013
2.5275	2.33493e-013
2.5325	2.33946e-013
2.5375	2.39998e-013
2.5425	2.33142e-013
2.5475	2.34274e-013
2.5525	2.84878e-015
2.5575	2.74302e-015
2.5625	2.36216e-015
2.5675	3.5952e-015
2.5725	3.85361e-015
2.5775	4.19808e-015
2.5825	2.47066e-015
2.5875	3.44766e-015
2.5925	8.46426e-015
2.5975	7.92464e-015
2.6025	4.6101e-013
2.6075	4.60469e-013
2.6125	4.62063e-013
2.6175	4.60913e-013
2.6225	4.61929e-013
2.6275	4.6128e-013
2.6325	4.62121e-013
2.6375	4.64946e-013
2.6425	4.64758e-013
2.6475	4.6142e-013
2.6525	2.35248e-013
2.6575	2.32937e-013
2.6625	2.30639e-013
2.6675	2.3208e-013
2.6725	2.31663e-013
2.6775	2.34657e-013
2.6825	2.35034e-013
2.6875	2.40274e-013
2.6925	2.30968e-013
2.6975	2.36824e-013
2.7025	2.35398e-013
2.7075	2.38118e-013
2.7125	2.34947e-013
2.7175	2.32685e-013
2.7225	2.35275e-013
2.7275	2.32317e-013
2.7325	2.35487e-013
2.7375	2.30871e-013
2.7425	2.31155e-013
2.7475	2.37276e-013
2.7525	2.37489e-013
2.7575	2.45946e-013
2.7625	2.32256e-013
2.7675	2.35828e-013
2.7725	2.35205e-013
2.7775	2.4596e-013
2.7825	2.39557e-013
2.7875	2.44184e-013
2.7925	2.52863e-013
2.7975	2.41833e-013
2.8025	7.1386e-013
2.8075	7.11999e-013
2.8125	7.11164e-013
2.8175	7.33431e-013
2.8225	7.29097e-013
2.8275	7.64799e-013
2.8325	7.5828e-013
2.8375	7.65864e-013
2.8425	7.95765e-013
2.8475	7.9103e-013
2.8525	1.59721e-013
2.8575	1.6426e-013
2.8625	2.21865e-013
2.8675	2.72392e-013
2.8725	3.25716e-013
2.8775	4.1978e-013
2.8825	5.34189e-013
2.8875	5.86841e-013
2.8925	6.29446e-013
2.8975	8.72658e-013
2.9025	9.26764e-013
2.9075	1.25698e-012
2.9125	1.47592e-012
2.9175	1.76639e-012
2.9225	2.26789e-012
2.9275	2.57415e-012
2.9325	3.06569e-012
2.9375	3.81565e-012
2.9425	4.39471e-012
2.9475	5.0317e-012
2.9525	6.33423e-012
2.9575	7.42118e-012
2.9625	8.52434e-012
2.9675	1.02604e-011
2.9725	1.17434e-011
2.9775	1.3788e-011
2.9825	1.5719e-011
2.9875	1.82196e-011
2.9925	2.08062e-011
2.9975	2.3592e-011
3.0025	2.68525e-011
3.0075	3.04928e-011
3.0125	3.43674e-011
3.0175	3.85993e-011
3.0225	4.33351e-011
3.0275	4.73185e-011
3.0325	5.17312e-011
3.0375	5.67511e-011
3.0425	6.2119e-011
3.0475	6.67362e-011
3.0525	7.18578e-011
3.0575	7.897e-011
3.0625	8.25071e-011
3.0675	8.71884e-011
3.0725	9.05983e-011
3.0775	9.48449e-011
3.0825	9.82704e-011
3.0875	1.01366e-010
3.0925	1.01229e-010
3.0975	1.037e-010
3.1025	1.04271e-010
3.1075	1.03935e-010
3.1125	1.01964e-010
3.1175	1.01986e-010
3.1225	9.9981e-011
3.1275	9.60889e-011
3.1325	9.22527e-011
3.1375	8.81834e-011
3.1425	8.50375e-011
3.1475	7.87479e-011
3.1525	7.35453e-011
3.1575	6.86872e-011
3.1625	6.34125e-011
3.1675	5.8275e-011
3.1725	5.30668e-011
3.1775	4.81623e-011
3.1825	4.2646e-011
3.1875	3.78675e-011
3.1925	3.32315e-011
3.1975	2.91327e-011
3.2025	2.5217e-011
3.2075	2.12017e-011
3.2125	1.82962e-011
3.2175	1.564e-011
3.2225	1.31158e-011
3.2275	1.09933e-011
3.2325	9.18799e-012
3.2375	7.1842e-012
3.2425	5.72854e-012
3.2475	4.77368e-012
3.2525	4.06758e-012
3.2575	3.23054e-012
3.2625	2.69971e-012
3.2675	1.89807e-012
3.2725	1.52656e-012
3.2775	1.362e-012
3.2825	1.0563e-012
3.2875	9.07907e-013
3.2925	7.06246e-013
3.2975	5.95933e-013
3.3025	2.33775e-013
3.3075	2.1779e-013
3.3125	8.87411e-014
3.3175	1.11658e-013
3.3225	5.94819e-014
3.3275	5.12978e-014
3.3325	4.68538e-014
3.3375	2.24489e-014
3.3425	2.4351e-014
3.3475	8.39162e-015
3.3525	1.51852e-014
3.3575	4.49645e-015
3.3625	2.79734e-015
3.3675	3.2242e-015
3.3725	8.09484e-015
3.3775	1.20851e-014
3.3825	4.89337e-015
3.3875	1.04843e-014
3.3925	9.69241e-015
3.3975	1.4442e-014
3.4025	2.37451e-013
3.4075	2.37766e-013
3.4125	2.39631e-013
3.4175	2.46642e-013
3.4225	2.46479e-013
3.4275	2.46294e-013
3.4325	2.58607e-013
3.4375	2.56391e-013
3.4425	2.53885e-013
3.4475	2.62176e-013
3.4525	2.62779e-013
3.4575	2.66881e-013
3.4625	2.7241e-013
3.4675	2.81695e-013
3.4725	2.93409e-013
3.4775	3.03472e-013
3.4825	3.09501e-013
3.4875	3.18842e-013
3.4925	3.40059e-013
3.4975	3.45315e-013
3.5025	1.34936e-013
3.5075	1.50619e-013
3.5125	1.64308e-013
3.5175	1.88747e-013
3.5225	2.24285e-013
3.5275	2.42637e-013
3.5325	2.80092e-013
3.5375	3.06874e-013
3.5425	3.47687e-013
3.5475	3.84638e-013
3.5525	4.26672e-013
3.5575	4.73354e-013
3.5625	5.20641e-013
3.5675	5.73544e-013
3.5725	6.4953e-013
3.5775	6.97986e-013
3.5825	7.48518e-013
3.5875	8.24223e-013
3.5925	8.94154e-013
3.5975	9.62868e-013
3.6025	1.06511e-012
3.6075	1.10726e-012
3.6125	1.19365e-012
3.6175	1.28297e-012
3.6225	1.35109e-012
3.6275	1.44404e-012
3.6325	1.51523e-012
3.6375	1.60559e-012
3.6425	1.69097e-012
3.6475	1.7582e-012
3.6525	2.04164e-012
3.6575	2.11078e-012
3.6625	2.17508e-012
3.6675	2.20674e-012
3.6725	2.28019e-012
3.6775	2.27284e-012
3.6825	2.29104e-012
3.6875	2.34166e-012
3.6925	2.35183e-012
3.6975	2.35072e-012
3.7025	2.34602e-012
3.7075	2.33727e-012
3.7125	2.28309e-012
3.7175	2.2672e-012
3.7225	2.23876e-012
3.7275	2.16995e-012
3.7325	2.08893e-012
3.7375	2.04392e-012
3.7425	1.9633e-012
3.7475	1.89915e-012
3.7525	1.57144e-012
3.7575	1.4955e-012
3.7625	1.41736e-012
3.7675	1.32594e-012
3.7725	1.24837e-012
3.7775	1.15716e-012
3.7825	1.05237e-012
3.7875	9.89746e-013
3.7925	8.8718e-013
3.7975	8.23611e-013
3.8025	7.28667e-013
3.8075	6.66466e-013
3.8125	5.96315e-013
3.8175	5.36554e-013
3.8225	4.87389e-013
3.8275	4.33537e-013
3.8325	3.66698e-013
3.8375	3.25411e-013
3.8425	2.8411e-013
3.8475	2.41191e-013
3.8525	4.41535e-013
3.8575	4.17429e-013
3.8625	3.8821e-013
3.8675	3.67523e-013
3.8725	3.38304e-013
3.8775	3.25776e-013
3.8825	3.07719e-013
3.8875	2.95272e-013
3.8925	2.8797e-013
3.8975	2.75611e-013
3.9025	3.93314e-014
3.9075	3.02167e-014
3.9125	2.52878e-014
3.9175	2.28791e-014
3.9225	1.58603e-014
3.9275	1.46433e-014
3.9325	9.61631e-015
3.9375	8.10532e-015
3.9425	1.09976e-014
3.9475	6.29253e-015
3.9525	4.30785e-015
3.9575	3.38897e-015
3.9625	3.5034e-015
3.9675	1.75026e-015
3.9725	1.44565e-015
3.9775	1.70142e-015
3.9825	2.25297e-015
3.9875	1.29479e-015
3.9925	1.1989e-015
3.9975	1.6563e-015
***
0.0025	5.73702e-010
0.0075	1.00683e-009
0.0125	9.10898e-010
0.0175	7.36839e-010
0.0225	5.56876e-010
0.0275	4.08587e-010
0.0325	2.96978e-010
0.0375	2.2045e-010
0.0425	1.69263e-010
0.0475	1.35085e-010
0.0525	1.12012e-010
0.0575	9.3237e-011
0.0625	8.02707e-011
0.0675	6.8599e-011
0.0725	5.90123e-011
0.0775	5.10919e-011
0.0825	4.36567e-011
0.0875	3.80317e-011
0.0925	3.21232e-011
0.0975	2.73893e-011
0.1025	2.31548e-011
0.1075	1.93018e-011
0.1125	1.59567e-011
0.1175	1.37797e-011
0.1225	1.15518e-011
0.1275	9.95421e-012
0.1325	9.08384e-012
0.1375	8.30624e-012
0.1425	7.96951e-012
0.1475	7.42413e-012
0.1525	7.20507e-012
0.1575	6.75716e-012
0.1625	6.59269e-012
0.1675	6.27896e-012
0.1725	6.03742e-012
0.1775	5.77156e-012
0.1825	5.61039e-012
0.1875	5.38463e-012
0.1925	5.23866e-012
0.1975	5.18139e-012
0.2025	4.91873e-012
0.2075	4.84499e-012
0.2125	4.64836e-012
0.2175	4.4577e-012
0.2225	4.36392e-012
0.2275	4.21665e-012
0.2325	4.03228e-012
0.2375	3.88014e-012
0.2425	3.78502e-012
0.2475	3.77523e-012
0.2525	3.57185e-012
0.2575	3.5701e-012
0.2625	3.48434e-012
0.2675	3.40289e-012
0.2725	3.29994e-012
0.2775	3.19684e-012
0.2825	3.11869e-012
0.2875	2.97688e-012
0.2925	2.83764e-012
0.2975	2.95113e-012
0.3025	2.83211e-012
0.3075	2.67027e-012
0.3125	2.67671e-012
0.3175	2.55613e-012
0.3225	2.51191e-012
0.3275	2.43423e-012
0.3325	2.37562e-012
0.3375	2.36566e-012
0.3425	2.24859e-012
0.3475	2.16634e-012
0.3525	2.09381e-012
0.3575	2.06655e-012
0.3625	2.05764e-012
0.3675	1.95048e-012
0.3725	1.89208e-012
0.3775	1.7967e-012
0.3825	1.75143e-012
0.3875	1.66235e-012
0.3925	1.69183e-012
0.3975	1.65533e-012
0.4025	1.55911e-012
0.4075	1.49863e-012
0.4125	1.47546e-012
0.4175	1.43215e-012
0.4225	1.43908e-012
0.4275	1.32682e-012
0.4325	1.28781e-012
0.4375	1.27315e-012
0.4425	1.21959e-012
0.4475	1.16285e-012
0.4525	1.10866e-012
0.4575	1.01788e-012
0.4625	9.82536e-013
0.4675	1.00576e-012
0.4725	9.65959e-013
0.4775	8.95761e-013
0.4825	8.8958e-013
0.4875	8.54104e-013
0.4925	8.57733e-013
0.4975	7.95876e-013
0.5025	7.63319e-013
0.5075	7.50747e-013
0.5125	7.58985e-013
0.5175	7.2629e-013
0.5225	7.27539e-013
0.5275	7.04906e-013
0.5325	7.32354e-013
0.5375	7.24872e-013
0.5425	7.06099e-013
0.5475	7.47305e-013
0.5525	7.37368e-013
0.5575	7.61231e-013
0.5625	7.45508e-013
0.5675	7.89255e-013
0.5725	7.66459e-013
0.5775	7.91464e-013
0.5825	8.18957e-013
0.5875	8.34245e-013
0.5925	8.47323e-013
0.5975	8.73017e-013
0.6025	8.71669e-013
0.6075	8.89451e-013
0.6125	9.08131e-013
0.6175	9.2711e-013
0.6225	8.93024e-013
0.6275	9.1817e-013
0.6325	9.05173e-013
0.6375	9.11965e-013
0.6425	9.02347e-013
0.6475	9.04745e-013
0.6525	9.28254e-013
0.6575	9.50131e-013
0.6625	9.91996e-013
0.6675	1.03527e-012
0.6725	1.08479e-012
0.6775	1.14554e-012
0.6825	1.21096e-012
0.6875	1.2828e-012
0.6925	1.34089e-012
0.6975	1.42336e-012
0.7025	1.53679e-012
0.7075	1.6261e-012
0.7125	1.72626e-012
0.7175	1.8325e-012
0.7225	1.98513e-012
0.7275	2.13322e-012
0.7325	2.3653e-012
0.7375	2.67508e-012
0.7425	3.07377e-012
0.7475	3.62891e-012
0.7525	4.34476e-012
0.7575	5.33268e-012
0.7625	6.29205e-012
0.7675	7.50223e-012
0.7725	8.52583e-012
0.7775	9.27998e-012
0.7825	9.62777e-012
0.7875	9.3329e-012
0.7925	8.57713e-012
0.7975	7.39689e-012
0.8025	6.05376e-012
0.8075	4.77519e-012
0.8125	3.64751e-012
0.8175	2.75917e-012
0.8225	2.08619e-012
0.8275	1.61927e-012
0.8325	1.26146e-012
0.8375	1.01944e-012
0.8425	8.61464e-013
0.8475	7.5523e-013
0.8525	6.76339e-013
0.8575	6.05363e-013
0.8625	5.50576e-013
0.8675	5.00991e-013
0.8725	4.63554e-013
0.8775	4.33079e-013
0.8825	3.94472e-013
0.8875	3.67305e-013
0.8925	3.46214e-013
0.8975	3.26734e-013
0.9025	2.8185e-013
0.9075	2.64373e-013
0.9125	2.50499e-013
0.9175	2.39423e-013
0.9225	2.33373e-013
0.9275	2.23234e-013
0.9325	2.24146e-013
0.9375	2.26799e-013
0.9425	2.38767e-013
0.9475	2.55651e-013
0.9525	2.96299e-013
0.9575	3.63773e-013
0.9625	4.62439e-013
0.9675	6.09586e-013
0.9725	8.31889e-013
0.9775	1.13061e-012
0.9825	1.52901e-012
0.9875	2.05121e-012
0.9925	2.66749e-012
0.9975	3.3477e-012
1.0025	4.03854e-012
1.0075	4.71085e-012
1.0125	5.21146e-012
1.0175	5.49458e-012
1.0225	5.55697e-012
1.0275	5.32698e-012
1.0325	4.82526e-012
1.0375	4.19689e-012
1.0425	3.4738e-012
1.0475	2.73235e-012
1.0525	2.05576e-012
1.0575	1.49924e-012
1.0625	1.04663e-012
1.0675	7.11479e-013
1.0725	4.79434e-013
1.0775	3.20555e-013
1.0825	2.27194e-013
1.0875	1.54709e-013
1.0925	1.20108e-013
1.0975	9.47669e-014
1.1025	7.53761e-014
1.1075	6.64375e-014
1.1125	5.84064e-014
1.1175	5.11267e-014
1.1225	4.65907e-014
1.1275	4.54892e-014
1.1325	4.13431e-014
1.1375	3.73273e-014
1.1425	3.58975e-014
1.1475	3.46231e-014
1.1525	3.24936e-014
1.1575	3.03501e-014
1.1625	2.88626e-014
1.1675	2.66411e-014
1.1725	2.49828e-014
1.1775	2.48495e-014
1.1825	2.41489e-014
1.1875	2.37852e-014
1.1925	2.25163e-014
1.1975	2.13228e-014
1.2025	2.06208e-014
1.2075	1.94876e-014
1.2125	1.80202e-014
1.2175	1.84565e-014
1.2225	1.67038e-014
1.2275	1.66254e-014
1.2325	1.62309e-014
1.2375	1.60263e-014
1.2425	1.48191e-014
1.2475	1.38879e-014
1.2525	1.40799e-014
1.2575	1.35939e-014
1.2625	1.37007e-014
1.2675	1.241e-014
1.2725	1.25615e-014
1.2775	1.1137e-014
1.2825	1.15181e-014
1.2875	1.09001e-014
1.2925	1.03549e-014
1.2975	9.99424e-015
1.3025	1.0087e-014
1.3075	9.56159e-015
1.3125	9.48627e-015
1.3175	9.25663e-015
1.3225	8.6657e-015
1.3275	8.53534e-015
1.3325	7.82166e-015
1.3375	7.97593e-015
1.3425	7.0989e-015
1.3475	7.39347e-015
1.3525	6.57193e-015
1.3575	7.08214e-015
1.3625	6.63827e-015
1.3675	6.4862e-015
1.3725	6.53618e-015
1.3775	5.52679e-015
1.3825	5.32458e-015
1.3875	6.04816e-015
1.3925	6.00553e-015
1.3975	5.72288e-015
1.4025	3.03602e-014
1.4075	3.00867e-014
1.4125	3.0065e-014
1.4175	3.00204e-014
1.4225	2.97269e-014
1.4275	2.9845e-014
1.4325	2.94853e-014
1.4375	2.95988e-014
1.4425	2.88869e-014
1.4475	2.95912e-014
1.4525	4.16579e-015
1.4575	4.16669e-015
1.4625	3.84929e-015
1.4675	3.32984e-015
1.4725	3.93008e-015
1.4775	3.78243e-015
1.4825	3.4845e-015
1.4875	3.47356e-015
1.4925	3.23834e-015
1.4975	3.05311e-015
1.5025	3.81121e-015
1.5075	2.59079e-015
1.5125	3.11906e-015
1.5175	3.12299e-015
1.5225	2.99817e-015
1.5275	2.27649e-015
1.5325	2.67467e-015
1.5375	2.71976e-015
1.5425	2.61239e-015
1.5475	2.50204e-015
1.5525	2.19894e-015
1.5575	2.34955e-015
1.5625	2.10087e-015
1.5675	2.07659e-015
1.5725	2.17662e-015
1.5775	2.48937e-015
1.5825	2.40866e-015
1.5875	1.74561e-015
1.5925	2.10417e-015
1.5975	2.05743e-015
1.6025	1.93923e-015
1.6075	2.02616e-015
1.6125	1.77944e-015
1.6175	1.86167e-015
1.6225	1.76807e-015
1.6275	1.86821e-015
1.6325	2.00867e-015
1.6375	1.67284e-015
1.6425	1.55989e-015
1.6475	1.54185e-015
1.6525	1.6785e-015
1.6575	1.25306e-015
1.6625	1.66357e-015
1.6675	1.4238e-015
1.6725	1.68209e-015
1.6775	1.52396e-015
1.6825	1.43827e-015
1.6875	1.31958e-015
1.6925	1.24443e-015
1.6975	1.69647e-015
1.7025	1.41757e-015
1.7075	1.27329e-015
1.7125	1.3601e-015
1.7175	1.07958e-015
1.7225	9.56509e-016
1.7275	9.56673e-016
1.7325	9.93697e-016
1.7375	9.9426e-016
1.7425	1.02555e-015
1.7475	9.47482e-016
1.7525	9.92522e-016
1.7575	8.45306e-016
1.7625	1.01074e-015
1.7675	1.00415e-015
1.7725	9.16377e-016
1.7775	9.36355e-016
1.7825	8.84062e-016
1.7875	9.21463e-016
1.7925	1.02178e-015
1.7975	8.36403e-016
1.8025	7.77275e-016
1.8075	8.46687e-016
1.8125	8.9648e-016
1.8175	9.4182e-016
1.8225	7.85307e-016
1.8275	6.41365e-016
1.8325	8.9719e-016
1.8375	6.59532e-016
1.8425	6.89384e-016
1.8475	6.59363e-016
1.8525	2.58615e-014
1.8575	2.59118e-014
1.8625	2.59795e-014
1.8675	2.60227e-014
1.8725	2.57493e-014
1.8775	2.58501e-014
1.8825	2.55707e-014
1.8875	2.58595e-014
1.8925	2.5836e-014
1.8975	2.59789e-014
1.9025	4.71311e-016
1.9075	5.91582e-016
1.9125	5.74474e-016
1.9175	4.77916e-016
1.9225	5.1566e-016
1.9275	7.39237e-016
1.9325	5.48718e-016
1.9375	6.57932e-016
1.9425	4.43616e-016
1.9475	4.81964e-016
1.9525	5.99828e-016
1.9575	4.85142e-016
1.9625	4.26405e-016
1.9675	4.48924e-016
1.9725	4.8076e-016
1.9775	3.85971e-016
1.9825	6.04788e-016
1.9875	3.25695e-016
1.9925	3.52033e-016
1.9975	3.84176e-016
2.0025	3.08817e-016
2.0075	4.46336e-016
2.0125	2.64042e-016
2.0175	3.57498e-016
2.0225	4.35475e-016
2.0275	3.44898e-016
2.0325	5.29353e-016
2.0375	5.20439e-016
2.0425	3.06855e-016
2.0475	3.94722e-016
2.0525	3.20875e-016
2.0575	3.02929e-016
2.0625	3.81926e-016
2.0675	3.62326e-016
2.0725	3.21955e-016
2.0775	3.16077e-016
2.0825	3.04731e-016
2.0875	3.07802e-016
2.0925	3.77751e-016
2.0975	2.95194e-016
2.1025	3.50486e-016
2.1075	1.83496e-016
2.1125	3.18945e-016
2.1175	3.03886e-016
2.1225	2.50658e-016
2.1275	2.74665e-016
2.1325	3.17538e-016
2.1375	3.50355e-016
2.1425	2.95292e-016
2.1475	2.02464e-016
2.1525	2.23114e-016
2.1575	2.28081e-016
2.1625	2.39755e-016
2.1675	3.00857e-016
2.1725	2.6195e-016
2.1775	3.02559e-016
2.1825	3.02329e-016
2.1875	1.4681e-016
2.1925	2.42388e-016
2.1975	2.61417e-016
2.2025	3.27984e-016
2.2075	1.95164e-016
2.2125	1.972e-016
2.2175	1.72844e-016
2.2225	1.95896e-016
2.2275	1.74479e-016
2.2325	2.06409e-016
2.2375	3.58094e-016
2.2425	1.65508e-016
2.2475	1.57702e-016
2.2525	1.82467e-016
2.2575	1.9537e-016
2.2625	2.36588e-016
2.2675	2.4233e-016
2.2725	3.03263e-016
2.2775	8.99116e-017
2.2825	1.69567e-016
2.2875	1.98238e-016
2.2925	1.94802e-016
2.2975	3.72338e-016
2.3025	3.47318e-016
2.3075	1.41948e-016
2.3125	1.87969e-016
2.3175	1.3836e-016
2.3225	1.82677e-016
2.3275	1.5926e-016
2.3325	1.28855e-016
2.3375	1.2362e-016
2.3425	2.85829e-016
2.3475	1.68646e-016
2.3525	9.90497e-017
2.3575	8.33569e-017
2.3625	1.50781e-016
2.3675	1.37874e-016
2.3725	1.58492e-016
2.3775	1.51607e-016
2.3825	1.28021e-016
2.3875	1.63658e-016
2.3925	1.47495e-016
2.3975	5.61018e-017
2.4025	1.539e-016
2.4075	1.41497e-016
2.4125	1.64749e-016
2.4175	1.12456e-016
2.4225	1.43038e-016
2.4275	1.11439e-016
2.4325	6.38347e-017
2.4375	1.23927e-016
2.4425	8.61814e-017
2.4475	1.13369e-016
2.4525	1.32075e-016
2.4575	1.03411e-016
2.4625	1.18266e-016
2.4675	9.58121e-017
2.4725	1.31272e-016
2.4775	5.60655e-017
2.4825	7.34318e-017
2.4875	1.00973e-016
2.4925	1.7063e-016
2.4975	1.16536e-016
2.5025	2.52704e-014
2.5075	2.52563e-014
2.5125	2.53371e-014
2.5175	2.52231e-014
2.5225	2.53762e-014
2.5275	2.52603e-014
2.5325	2.53035e-014
2.5375	2.53287e-014
2.5425	2.52162e-014
2.5475	2.52197e-014
2.5525	1.49468e-016
2.5575	8.34351e-017
2.5625	8.96212e-017
2.5675	5.54783e-017
2.5725	9.90665e-017
2.5775	9.59476e-017
2.5825	6.34918e-017
2.5875	1.03307e-016
2.5925	5.31089e-017
2.5975	1.19659e-016
2.6025	2.52497e-014
2.6075	2.5309e-014
2.6125	2.52149e-014
2.6175	2.53723e-014
2.6225	2.52715e-014
2.6275	2.52217e-014
2.6325	2.52357e-014
2.6375	2.52477e-014
2.6425	2.52657e-014
2.6475	2.56328e-014
2.6525	1.34025e-016
2.6575	1.0815e-016
2.6625	3.30244e-016
2.6675	9.89739e-017
2.6725	7.90435e-017
2.6775	2.2246e-016
2.6825	1.72391e-016
2.6875	1.71743e-016
2.6925	1.28988e-016
2.6975	6.04616e-016
2.7025	2.15387e-016
2.7075	2.61138e-016
2.7125	4.33975e-016
2.7175	4.92126e-016
2.7225	6.14119e-016
2.7275	8.9497e-016
2.7325	5.83328e-016
2.7375	1.07852e-015
2.7425	1.03793e-015
2.7475	9.53736e-016
2.7525	8.82899e-016
2.7575	1.31686e-015
2.7625	1.17581e-015
2.7675	1.72888e-015
2.7725	1.65657e-015
2.7775	2.25477e-015
2.7825	2.49866e-015
2.7875	1.94852e-015
2.7925	2.96416e-015
2.7975	3.56136e-015
2.8025	4.90235e-015
2.8075	5.49541e-015
2.8125	6.3665e-015
2.8175	7.70513e-015
2.8225	8.03081e-015
2.8275	9.02322e-015
2.8325	1.23663e-014
2.8375	1.55101e-014
2.8425	1.36715e-014
2.8475	1.81621e-014
2.8525	2.32281e-014
2.8575	2.54132e-014
2.8625	2.96354e-014
2.8675	3.12081e-014
2.8725	3.81215e-014
2.8775	4.6252e-014
2.8825	5.3314e-014
2.8875	6.50026e-014
2.8925	7.44964e-014
2.8975	8.8493e-014
2.9025	1.05591e-013
2.9075	1.11542e-013
2.9125	1.34638e-013
2.9175	1.58547e-013
2.9225	1.85821e-013
2.9275	2.12884e-013
2.9325	2.48036e-013
2.9375	2.83419e-013
2.9425	3.24779e-013
2.9475	3.66671e-013
2.9525	4.22579e-013
2.9575	4.66541e-013
2.9625	5.55809e-013
2.9675	6.21163e-013
2.9725	7.00617e-013
2.9775	7.81035e-013
2.9825	8.62602e-013
2.9875	9.69919e-013
2.9925	1.09663e-012
2.9975	1.20298e-012
3.0025	1.30774e-012
3.0075	1.44742e-012
3.0125	1.5665e-012
3.0175	1.73013e-012
3.0225	1.88625e-012
3.0275	2.02493e-012
3.0325	2.18592e-012
3.0375	2.32567e-012
3.0425	2.48544e-012
3.0475	2.65634e-012
3.0525	2.8068e-012
3.0575	2.95309e-012
3.0625	3.08359e-012
3.0675	3.17501e-012
3.0725	3.32628e-012
3.0775	3.42261e-012
3.0825	3.56739e-012
3.0875	3.5978e-012
3.0925	3.63544e-012
3.0975	3.69681e-012
3.1025	3.71035e-012
3.1075	3.74636e-012
3.1125	3.69415e-012
3.1175	3.66397e-012
3.1225	3.66713e-012
3.1275	3.57237e-012
3.1325	3.41239e-012
3.1375	3.35546e-012
3.1425	3.20583e-012
3.1475	3.10481e-012
3.1525	2.97708e-012
3.1575	2.81983e-012
3.1625	2.68471e-012
3.1675	2.53936e-012
3.1725	2.34282e-012
3.1775	2.16874e-012
3.1825	1.99214e-012
3.1875	1.85882e-012
3.1925	1.68259e-012
3.1975	1.49096e-012
3.2025	1.30238e-012
3.2075	1.21439e-012
3.2125	1.08196e-012
3.2175	9.27746e-013
3.2225	8.31992e-013
3.2275	7.35604e-013
3.2325	6.32647e-013
3.2375	5.44654e-013
3.2425	4.71923e-013
3.2475	4.13038e-013
3.2525	3.49149e-013
3.2575	2.88549e-013
3.2625	2.48047e-013
3.2675	2.03186e-013
3.2725	1.60534e-013
3.2775	1.38009e-013
3.2825	1.17174e-013
3.2875	8.71682e-014
3.2925	7.18386e-014
3.2975	5.57772e-014
3.3025	4.66154e-014
3.3075	3.37105e-014
3.3125	2.76259e-014
3.3175	2.07364e-014
3.3225	1.4955e-014
3.3275	1.27565e-014
3.3325	1.04952e-014
3.3375	8.86899e-015
3.3425	7.02693e-015
3.3475	5.90926e-015
3.3525	4.22317e-015
3.3575	4.25345e-015
3.3625	2.86989e-015
3.3675	2.25579e-015
3.3725	1.38896e-015
3.3775	1.44756e-015
3.3825	1.05545e-015
3.3875	1.01118e-015
3.3925	1.3288e-015
3.3975	8.54667e-016
3.4025	9.5137e-016
3.4075	1.31399e-015
3.4125	1.3061e-015
3.4175	1.23343e-015
3.4225	1.43951e-015
3.4275	1.61628e-015
3.4325	1.96299e-015
3.4375	2.05898e-015
3.4425	2.27592e-015
3.4475	2.55355e-015
3.4525	2.73722e-015
3.4575	3.01658e-015
3.4625	3.40137e-015
3.4675	4.09803e-015
3.4725	4.4007e-015
3.4775	4.87677e-015
3.4825	5.83004e-015
3.4875	5.97235e-015
3.4925	6.76802e-015
3.4975	7.72976e-015
3.5025	8.18494e-015
3.5075	9.04955e-015
3.5125	1.00671e-014
3.5175	1.13048e-014
3.5225	1.23126e-014
3.5275	1.35087e-014
3.5325	1.46051e-014
3.5375	1.6611e-014
3.5425	1.7762e-014
3.5475	1.88813e-014
3.5525	2.05307e-014
3.5575	2.2375e-014
3.5625	2.39115e-014
3.5675	2.69108e-014
3.5725	2.83443e-014
3.5775	3.13854e-014
3.5825	3.31308e-014
3.5875	3.57534e-014
3.5925	3.79676e-014
3.5975	4.00261e-014
3.6025	4.21109e-014
3.6075	4.46277e-014
3.6125	4.71639e-014
3.6175	4.98369e-014
3.6225	5.14929e-014
3.6275	5.55198e-014
3.6325	5.69803e-014
3.6375	5.90456e-014
3.6425	6.19873e-014
3.6475	6.37083e-014
3.6525	6.58126e-014
3.6575	6.81473e-014
3.6625	6.95767e-014
3.6675	7.13749e-014
3.6725	7.28401e-014
3.6775	7.36408e-014
3.6825	7.56496e-014
3.6875	7.6121e-014
3.6925	7.70039e-014
3.6975	7.66213e-014
3.7025	7.58392e-014
3.7075	7.65961e-014
3.7125	7.58897e-014
3.7175	7.54252e-014
3.7225	7.50331e-014
3.7275	7.30896e-014
3.7325	7.06161e-014
3.7375	7.02551e-014
3.7425	6.72572e-014
3.7475	6.52937e-014
3.7525	6.38786e-014
3.7575	6.15803e-014
3.7625	5.85089e-014
3.7675	5.6732e-014
3.7725	5.37443e-014
3.7775	5.14835e-014
3.7825	4.82082e-014
3.7875	4.52218e-014
3.7925	4.1929e-014
3.7975	3.97163e-014
3.8025	3.70612e-014
3.8075	3.43355e-014
3.8125	3.17682e-014
3.8175	3.06639e-014
3.8225	2.68762e-014
3.8275	2.46516e-014
3.8325	2.18876e-014
3.8375	2.05798e-014
3.8425	1.85251e-014
3.8475	1.67476e-014
3.8525	4.03015e-014
3.8575	3.87015e-014
3.8625	3.71008e-014
3.8675	3.56467e-014
3.8725	3.49172e-014
3.8775	3.31945e-014
3.8825	3.22782e-014
3.8875	3.1615e-014
3.8925	3.04261e-014
3.8975	2.99166e-014
3.9025	4.00832e-015
3.9075	3.54151e-015
3.9125	2.96183e-015
3.9175	2.63687e-015
3.9225	2.27172e-015
3.9275	1.88917e-015
3.9325	1.47407e-015
3.9375	1.42184e-015
3.9425	1.15466e-015
3.9475	9.56574e-016
3.9525	8.91394e-016
3.9575	6.5053e-016
3.9625	5.46023e-016
3.9675	4.77788e-016
3.9725	2.89034e-016
3.9775	3.0574e-016
3.9825	2.60037e-016
3.9875	1.60029e-016
3.9925	1.68826e-016
3.9975	1.49173e-016
***